@Omega=0.800
10.0555  2928
10.1325  2913
10.2095  2839
10.2865  2844
10.3635  2836
10.4405  2662
10.5175  2734
10.5945  2750
10.6715  2774
10.7485  2653
10.8255  2585
10.9025  2596
10.9795  2666
11.0565  2573
11.1335  2543
11.2105  2526
11.2875  2497
11.3645  2462
11.4415  2473
11.5185  2415
11.5955  2307
11.6725  2429
11.7495  2320
11.8265  2348
11.9035  2318
11.9805  2226
12.0575  2276
12.1345  2183
12.2115  2277
12.2885  2246
12.3655  2198
12.4425  2177
12.5195  2130
12.5965  2135
12.6735  2112
12.7505  2045
12.8275  2067
12.9045  2067
12.9815  2117
13.0585  2075
13.1355  1989
13.2125  1992
13.2895  1959
13.3665  1961
13.4435  1951
13.5205  1839
13.5975  1925
13.6745  1949
13.7515  1856
13.8285  1802
13.9055  1892
13.9825  1902
14.0595  1749
14.1365  1780
14.2135  1713
14.2905  1785
14.3675  1723
14.4445  1781
14.5215  1776
14.5985  1731
14.6755  1716
14.7525  1696
14.8295  1669
14.9065  1708
14.9835  1632
15.0605  1660
15.1375  1656
15.2145  1591
15.2915  1671
15.3685  1564
15.4455  1588
15.5225  1611
15.5995  1612
15.6765  1550
15.7535  1473
15.8305  1466
15.9075  1550
15.9845  1435
16.0615  1382
16.1385  1392
16.2155  1410
16.2925  1414
16.3695  1481
16.4465  1405
16.5235  1344
16.6005  1397
16.6775  1341
16.7545  1448
16.8315  1324
16.9085  1336
16.9855  1308
17.0625  1343
17.1395  1245
17.2165  1322
17.2935  1258
17.3705  1336
17.4475  1305
17.5245  1215
17.6015  1243
17.6785  1244
17.7555  1252
17.8325  1193
17.9095  1220
17.9865  1169
18.0635  1200
18.1405  1162
18.2175  1188
18.2945  1205
18.3715  1134
18.4485  1101
18.5255  1075
18.6025  1127
18.6795  1158
18.7565  1050
18.8335  1090
18.9105  1125
18.9875  1096
19.0645  1093
19.1415  1108
19.2185  1039
19.2955  1069
19.3725  1052
19.4495  1041
19.5265  1029
19.6035  1001
19.6805  976
19.7575  1059
19.8345  981
19.9115  1026
19.9885  1006
20.0655  999
20.1425  944
20.2195  946
20.2965  898
20.3735  982
20.4505  976
20.5275  935
20.6045  942
20.6815  900
20.7585  838
20.8355  918
20.9125  856
20.9895  910
21.0665  925
21.1435  850
21.2205  902
21.2975  876
21.3745  862
21.4515  864
21.5285  894
21.6055  846
21.6825  833
21.7595  794
21.8365  845
21.9135  833
21.9905  824
22.0675  791
22.1445  813
22.2215  747
22.2985  742
22.3755  804
22.4525  755
22.5295  768
22.6065  806
22.6835  769
22.7605  786
22.8375  764
22.9145  797
22.9915  736
23.0685  718
23.1455  714
23.2225  739
23.2995  744
23.3765  718
23.4535  714
23.5305  719
23.6075  673
23.6845  703
23.7615  692
23.8385  653
23.9155  671
23.9925  704
24.0695  697
24.1465  662
24.2235  637
24.3005  640
24.3775  719
24.4545  656
24.5315  657
24.6085  633
24.6855  656
24.7625  600
24.8395  661
24.9165  585
24.9935  637
25.0705  647
25.1475  635
25.2245  603
25.3015  594
25.3785  569
25.4555  576
25.5325  588
25.6095  575
25.6865  586
25.7635  587
25.8405  552
25.9175  585
25.9945  551
26.0715  567
26.1485  541
26.2255  504
26.3025  552
26.3795  523
26.4565  553
26.5335  513
26.6105  557
26.6875  493
26.7645  543
26.8415  512
26.9185  505
26.9955  497
27.0725  484
27.1495  531
27.2265  504
27.3035  468
27.3805  472
27.4575  489
27.5345  527
27.6115  530
27.6885  457
27.7655  493
27.8425  454
27.9195  511
27.9965  500
28.0735  456
28.1505  454
28.2275  463
28.3045  475
28.3815  485
28.4585  495
28.5355  447
28.6125  435
28.6895  455
28.7665  453
28.8435  433
28.9205  465
28.9975  422
29.0745  415
29.1515  455
29.2285  419
29.3055  439
29.3825  420
29.4595  376
29.5365  423
29.6135  464
29.6905  458
29.7675  433
29.8445  413
29.9215  430
29.9985  387
30.0755  389
30.1525  382
30.2295  390
30.3065  395
30.3835  399
30.4605  360
30.5375  367
30.6145  396
30.6915  357
30.7685  379
30.8455  396
30.9225  380
30.9995  373
31.0765  400
31.1535  381
31.2305  380
31.3075  359
31.3845  333
31.4615  343
31.5385  350
31.6155  345
31.6925  359
31.7695  363
31.8465  340
31.9235  370
32.0005  345
32.0775  328
32.1545  379
32.2315  352
32.3085  335
32.3855  304
32.4625  360
32.5395  337
32.6165  319
32.6935  335
32.7705  350
32.8475  329
32.9245  315
33.0015  306
33.0785  293
33.1555  325
33.2325  329
33.3095  350
33.3865  321
33.4635  271
33.5405  313
33.6175  287
33.6945  343
33.7715  289
33.8485  298
33.9255  340
34.0025  295
34.0795  305
34.1565  280
34.2335  255
34.3105  328
34.3875  281
34.4645  247
34.5415  260
34.6185  259
34.6955  279
34.7725  288
34.8495  268
34.9265  266
35.0035  265
35.0805  280
35.1575  290
35.2345  276
35.3115  262
35.3885  283
35.4655  248
35.5425  251
35.6195  240
35.6965  262
35.7735  280
35.8505  275
35.9275  253
36.0045  290
36.0815  248
36.1585  245
36.2355  278
36.3125  283
36.3895  287
36.4665  259
36.5435  250
36.6205  261
36.6975  250
36.7745  258
36.8515  260
36.9285  261
37.0055  227
37.0825  255
37.1595  255
37.2365  243
37.3135  258
37.3905  243
37.4675  236
37.5445  246
37.6215  226
37.6985  237
37.7755  238
37.8525  205
37.9295  230
38.0065  210
38.0835  227
38.1605  237
38.2375  233
38.3145  254
38.3915  237
38.4685  242
38.5455  207
38.6225  239
38.6995  254
38.7765  231
38.8535  227
38.9305  259
39.0075  250
39.0845  250
39.1615  238
39.2385  283
39.3155  257
39.3925  273
39.4695  298
39.5465  317
39.6235  326
39.7005  314
39.7775  336
39.8545  406
39.9315  459
40.0085  697
40.0855  968
40.1625  1539
40.2395  2343
40.3165  3429
40.3935  4594
40.4705  5321
40.5475  5686
40.6245  5333
40.7015  4083
40.7785  2829
40.8555  1879
40.9325  1179
41.0095  815
41.0865  588
41.1635  427
41.2405  399
41.3175  338
41.3945  321
41.4715  253
41.5485  247
41.6255  258
41.7025  224
41.7795  213
41.8565  223
41.9335  209
42.0105  186
42.0875  215
42.1645  186
42.2415  183
42.3185  202
42.3955  189
42.4725  184
42.5495  184
42.6265  199
42.7035  188
42.7805  189
42.8575  169
42.9345  182
43.0115  178
43.0885  171
43.1655  170
43.2425  185
43.3195  164
43.3965  166
43.4735  149
43.5505  146
43.6275  184
43.7045  156
43.7815  165
43.8585  186
43.9355  161
44.0125  162
44.0895  146
44.1665  151
44.2435  144
44.3205  174
44.3975  150
44.4745  150
44.5515  169
44.6285  159
44.7055  173
44.7825  169
44.8595  174
44.9365  145
45.0135  163
45.0905  162
45.1675  147
45.2445  155
45.3215  154
45.3985  129
45.4755  143
45.5525  152
45.6295  135
45.7065  154
45.7835  155
45.8605  149
45.9375  140
46.0145  123
46.0915  143
46.1685  154
46.2455  138
46.3225  137
46.3995  135
46.4765  156
46.5535  132
46.6305  121
46.7075  151
46.7845  129
46.8615  126
46.9385  132
47.0155  126
47.0925  132
47.1695  138
47.2465  129
47.3235  141
47.4005  126
47.4775  117
47.5545  128
47.6315  103
47.7085  121
47.7855  114
47.8625  120
47.9395  126
48.0165  103
48.0935  105
48.1705  124
48.2475  121
48.3245  116
48.4015  121
48.4785  132
48.5555  107
48.6325  110
48.7095  104
48.7865  116
48.8635  97
48.9405  120
49.0175  102
49.0945  117
49.1715  97
49.2485  101
49.3255  119
49.4025  116
49.4795  112
49.5565  126
49.6335  103
49.7105  112
49.7875  112
49.8645  103
49.9415  100
50.0185  116
50.0955  108
50.1725  122
50.2495  92
50.3265  101
50.4035  105
50.4805  92
50.5575  109
50.6345  109
50.7115  96
50.7885  92
50.8655  92
50.9425  108
51.0195  103
51.0965  99
51.1735  95
51.2505  98
51.3275  91
51.4045  87
51.4815  114
51.5585  77
51.6355  98
51.7125  89
51.7895  90
51.8665  82
51.9435  87
52.0205  95
52.0975  96
52.1745  97
52.2515  82
52.3285  82
52.4055  104
52.4825  100
52.5595  83
52.6365  89
52.7135  78
52.7905  86
52.8675  95
52.9445  118
53.0215  93
53.0985  93
53.1755  92
53.2525  88
53.3295  75
53.4065  83
53.4835  85
53.5605  92
53.6375  87
53.7145  98
53.7915  77
53.8685  108
53.9455  95
54.0225  97
54.0995  83
54.1765  102
54.2535  83
54.3305  87
54.4075  100
54.4845  92
54.5615  84
54.6385  98
54.7155  73
54.7925  83
54.8695  88
54.9465  108
55.0235  83
55.1005  87
55.1775  63
55.2545  78
55.3315  95
55.4085  91
55.4855  77
55.5625  81
55.6395  78
55.7165  87
55.7935  67
55.8705  93
55.9475  79
56.0245  83
56.1015  89
56.1785  91
56.2555  88
56.3325  70
56.4095  68
56.4865  75
56.5635  78
56.6405  83
56.7175  83
56.7945  80
56.8715  80
56.9485  80
57.0255  84
57.1025  80
57.1795  87
57.2565  72
57.3335  88
57.4105  80
57.4875  77
57.5645  80
57.6415  99
57.7185  89
57.7955  63
57.8725  81
57.9495  106
58.0265  125
58.1035  137
58.1805  160
58.2575  223
58.3345  309
58.4115  489
58.4885  716
58.5655  910
58.6425  1083
58.7195  1141
58.7965  960
58.8735  818
58.9505  618
59.0275  425
59.1045  271
59.1815  228
59.2585  151
59.3355  126
59.4125  100
59.4895  99
59.5665  87
59.6435  86
59.7205  89
59.7975  102
59.8745  88
59.9515  91
60.0285  85
60.1055  75
60.1825  68
60.2595  79
60.3365  97
60.4135  76
60.4905  86
60.5675  74
60.6445  73
60.7215  81
60.7985  61
60.8755  78
60.9525  73
61.0295  72
61.1065  72
61.1835  76
61.2605  87
61.3375  78
61.4145  66
61.4915  56
61.5685  79
61.6455  76
61.7225  60
61.7995  72
61.8765  58
61.9535  76
62.0305  77
62.1075  80
62.1845  76
62.2615  76
62.3385  78
62.4155  81
62.4925  53
62.5695  68
62.6465  65
62.7235  59
62.8005  79
62.8775  60
62.9545  73
63.0315  63
63.1085  62
63.1855  73
63.2625  67
63.3395  79
63.4165  69
63.4935  73
63.5705  59
63.6475  67
63.7245  76
63.8015  76
63.8785  62
63.9555  75
64.0325  58
64.1095  68
64.1865  63
64.2635  73
64.3405  53
64.4175  73
64.4945  70
64.5715  65
64.6485  93
64.7255  67
64.8025  63
64.8795  68
64.9565  77
65.0335  72
65.1105  77
65.1875  64
65.2645  80
65.3415  73
65.4185  71
65.4955  79
65.5725  62
65.6495  75
65.7265  52
65.8035  75
65.8805  71
65.9575  58
66.0345  57
66.1115  67
66.1885  63
66.2655  69
66.3425  67
66.4195  63
66.4965  68
66.5735  76
66.6505  72
66.7275  80
66.8045  59
66.8815  70
66.9585  61
67.0355  68
67.1125  67
67.1895  58
67.2665  70
67.3435  48
67.4205  69
67.4975  68
67.5745  57
67.6515  76
67.7285  59
67.8055  68
67.8825  57
67.9595  56
68.0365  62
68.1135  63
68.1905  52
68.2675  56
68.3445  67
68.4215  83
68.4985  62
68.5755  50
68.6525  61
68.7295  63
68.8065  55
68.8835  65
68.9605  53
69.0375  75
69.1145  51
69.1915  65
69.2685  61
69.3455  63
69.4225  67
69.4995  69
69.5765  56
69.6535  55
69.7305  52
69.8075  49
69.8845  59
69.9615  74
