@Omega=0.600
10.0555  3086
10.1325  3238
10.2095  3275
10.2865  3131
10.3635  3149
10.4405  3113
10.5175  3124
10.5945  3124
10.6715  3008
10.7485  2917
10.8255  2916
10.9025  2904
10.9795  2851
11.0565  2760
11.1335  2901
11.2105  2784
11.2875  2882
11.3645  2789
11.4415  2729
11.5185  2679
11.5955  2658
11.6725  2803
11.7495  2678
11.8265  2584
11.9035  2528
11.9805  2491
12.0575  2549
12.1345  2511
12.2115  2513
12.2885  2502
12.3655  2401
12.4425  2337
12.5195  2372
12.5965  2409
12.6735  2437
12.7505  2383
12.8275  2359
12.9045  2256
12.9815  2303
13.0585  2230
13.1355  2392
13.2125  2172
13.2895  2154
13.3665  2273
13.4435  2132
13.5205  2150
13.5975  2053
13.6745  2171
13.7515  2151
13.8285  2099
13.9055  2099
13.9825  2079
14.0595  2024
14.1365  1976
14.2135  1975
14.2905  1974
14.3675  2006
14.4445  1891
14.5215  1920
14.5985  2031
14.6755  1939
14.7525  1915
14.8295  1817
14.9065  1816
14.9835  1780
15.0605  1897
15.1375  1813
15.2145  1830
15.2915  1845
15.3685  1780
15.4455  1725
15.5225  1800
15.5995  1727
15.6765  1696
15.7535  1705
15.8305  1678
15.9075  1626
15.9845  1698
16.0615  1681
16.1385  1683
16.2155  1603
16.2925  1582
16.3695  1514
16.4465  1498
16.5235  1606
16.6005  1615
16.6775  1493
16.7545  1550
16.8315  1517
16.9085  1465
16.9855  1382
17.0625  1462
17.1395  1449
17.2165  1407
17.2935  1467
17.3705  1460
17.4475  1424
17.5245  1400
17.6015  1459
17.6785  1432
17.7555  1373
17.8325  1341
17.9095  1304
17.9865  1313
18.0635  1344
18.1405  1309
18.2175  1280
18.2945  1350
18.3715  1324
18.4485  1273
18.5255  1227
18.6025  1232
18.6795  1225
18.7565  1188
18.8335  1211
18.9105  1182
18.9875  1237
19.0645  1187
19.1415  1177
19.2185  1168
19.2955  1125
19.3725  1177
19.4495  1064
19.5265  1150
19.6035  1091
19.6805  1142
19.7575  1108
19.8345  1101
19.9115  1049
19.9885  1093
20.0655  1089
20.1425  1109
20.2195  1029
20.2965  1032
20.3735  1047
20.4505  1063
20.5275  982
20.6045  1011
20.6815  1023
20.7585  992
20.8355  1006
20.9125  982
20.9895  1010
21.0665  968
21.1435  927
21.2205  908
21.2975  959
21.3745  970
21.4515  925
21.5285  936
21.6055  885
21.6825  910
21.7595  954
21.8365  851
21.9135  833
21.9905  886
22.0675  904
22.1445  933
22.2215  882
22.2985  934
22.3755  891
22.4525  846
22.5295  824
22.6065  833
22.6835  839
22.7605  765
22.8375  853
22.9145  839
22.9915  791
23.0685  795
23.1455  829
23.2225  863
23.2995  747
23.3765  795
23.4535  745
23.5305  807
23.6075  732
23.6845  785
23.7615  742
23.8385  755
23.9155  706
23.9925  767
24.0695  713
24.1465  775
24.2235  722
24.3005  756
24.3775  713
24.4545  675
24.5315  721
24.6085  706
24.6855  701
24.7625  676
24.8395  684
24.9165  705
24.9935  649
25.0705  629
25.1475  702
25.2245  614
25.3015  613
25.3785  633
25.4555  647
25.5325  647
25.6095  622
25.6865  602
25.7635  639
25.8405  622
25.9175  592
25.9945  595
26.0715  586
26.1485  601
26.2255  669
26.3025  555
26.3795  608
26.4565  616
26.5335  605
26.6105  580
26.6875  594
26.7645  585
26.8415  566
26.9185  565
26.9955  550
27.0725  581
27.1495  560
27.2265  528
27.3035  569
27.3805  554
27.4575  532
27.5345  559
27.6115  544
27.6885  512
27.7655  521
27.8425  544
27.9195  503
27.9965  487
28.0735  455
28.1505  500
28.2275  518
28.3045  487
28.3815  522
28.4585  520
28.5355  477
28.6125  485
28.6895  466
28.7665  468
28.8435  484
28.9205  497
28.9975  462
29.0745  476
29.1515  448
29.2285  409
29.3055  429
29.3825  470
29.4595  440
29.5365  466
29.6135  467
29.6905  396
29.7675  422
29.8445  438
29.9215  465
29.9985  456
30.0755  434
30.1525  447
30.2295  388
30.3065  418
30.3835  446
30.4605  428
30.5375  423
30.6145  446
30.6915  403
30.7685  375
30.8455  427
30.9225  427
30.9995  406
31.0765  364
31.1535  403
31.2305  411
31.3075  398
31.3845  357
31.4615  371
31.5385  369
31.6155  360
31.6925  354
31.7695  385
31.8465  360
31.9235  371
32.0005  342
32.0775  366
32.1545  352
32.2315  367
32.3085  360
32.3855  328
32.4625  346
32.5395  350
32.6165  342
32.6935  348
32.7705  341
32.8475  339
32.9245  336
33.0015  331
33.0785  348
33.1555  360
33.2325  350
33.3095  311
33.3865  306
33.4635  331
33.5405  336
33.6175  318
33.6945  291
33.7715  327
33.8485  310
33.9255  315
34.0025  297
34.0795  286
34.1565  285
34.2335  283
34.3105  279
34.3875  314
34.4645  299
34.5415  304
34.6185  303
34.6955  307
34.7725  289
34.8495  290
34.9265  287
35.0035  277
35.0805  307
35.1575  279
35.2345  277
35.3115  261
35.3885  296
35.4655  244
35.5425  283
35.6195  258
35.6965  239
35.7735  263
35.8505  253
35.9275  260
36.0045  282
36.0815  266
36.1585  233
36.2355  247
36.3125  250
36.3895  250
36.4665  238
36.5435  250
36.6205  231
36.6975  262
36.7745  230
36.8515  244
36.9285  240
37.0055  278
37.0825  266
37.1595  229
37.2365  246
37.3135  215
37.3905  259
37.4675  245
37.5445  217
37.6215  234
37.6985  218
37.7755  211
37.8525  273
37.9295  247
38.0065  228
38.0835  217
38.1605  228
38.2375  244
38.3145  231
38.3915  219
38.4685  214
38.5455  210
38.6225  195
38.6995  212
38.7765  209
38.8535  219
38.9305  224
39.0075  219
39.0845  218
39.1615  212
39.2385  240
39.3155  215
39.3925  199
39.4695  209
39.5465  192
39.6235  228
39.7005  206
39.7775  230
39.8545  264
39.9315  289
40.0085  328
40.0855  423
40.1625  555
40.2395  669
40.3165  899
40.3935  976
40.4705  1017
40.5475  1053
40.6245  926
40.7015  783
40.7785  652
40.8555  503
40.9325  385
41.0095  310
41.0865  239
41.1635  222
41.2405  191
41.3175  207
41.3945  181
41.4715  192
41.5485  178
41.6255  195
41.7025  160
41.7795  173
41.8565  181
41.9335  165
42.0105  172
42.0875  160
42.1645  187
42.2415  168
42.3185  152
42.3955  167
42.4725  188
42.5495  163
42.6265  157
42.7035  151
42.7805  160
42.8575  132
42.9345  145
43.0115  144
43.0885  165
43.1655  157
43.2425  162
43.3195  168
43.3965  167
43.4735  144
43.5505  148
43.6275  134
43.7045  130
43.7815  145
43.8585  139
43.9355  144
44.0125  133
44.0895  149
44.1665  145
44.2435  147
44.3205  148
44.3975  167
44.4745  142
44.5515  126
44.6285  154
44.7055  139
44.7825  134
44.8595  155
44.9365  124
45.0135  128
45.0905  124
45.1675  162
45.2445  117
45.3215  139
45.3985  134
45.4755  121
45.5525  117
45.6295  143
45.7065  131
45.7835  123
45.8605  131
45.9375  131
46.0145  140
46.0915  141
46.1685  116
46.2455  116
46.3225  123
46.3995  109
46.4765  129
46.5535  121
46.6305  134
46.7075  109
46.7845  122
46.8615  118
46.9385  110
47.0155  127
47.0925  120
47.1695  112
47.2465  106
47.3235  112
47.4005  116
47.4775  100
47.5545  99
47.6315  119
47.7085  127
47.7855  116
47.8625  114
47.9395  99
48.0165  107
48.0935  125
48.1705  124
48.2475  114
48.3245  119
48.4015  126
48.4785  122
48.5555  131
48.6325  96
48.7095  128
48.7865  108
48.8635  114
48.9405  112
49.0175  100
49.0945  101
49.1715  115
49.2485  111
49.3255  116
49.4025  98
49.4795  94
49.5565  104
49.6335  98
49.7105  108
49.7875  83
49.8645  99
49.9415  103
50.0185  113
50.0955  83
50.1725  99
50.2495  94
50.3265  105
50.4035  97
50.4805  102
50.5575  74
50.6345  95
50.7115  89
50.7885  83
50.8655  84
50.9425  98
51.0195  88
51.0965  107
51.1735  85
51.2505  108
51.3275  86
51.4045  94
51.4815  81
51.5585  95
51.6355  93
51.7125  92
51.7895  100
51.8665  92
51.9435  91
52.0205  84
52.0975  90
52.1745  81
52.2515  87
52.3285  89
52.4055  89
52.4825  90
52.5595  98
52.6365  94
52.7135  95
52.7905  79
52.8675  80
52.9445  80
53.0215  97
53.0985  93
53.1755  84
53.2525  81
53.3295  83
53.4065  83
53.4835  83
53.5605  75
53.6375  101
53.7145  85
53.7915  87
53.8685  84
53.9455  86
54.0225  79
54.0995  83
54.1765  85
54.2535  106
54.3305  70
54.4075  82
54.4845  79
54.5615  74
54.6385  80
54.7155  66
54.7925  69
54.8695  79
54.9465  80
55.0235  70
55.1005  62
55.1775  79
55.2545  65
55.3315  86
55.4085  72
55.4855  82
55.5625  76
55.6395  87
55.7165  83
55.7935  60
55.8705  82
55.9475  83
56.0245  83
56.1015  89
56.1785  62
56.2555  75
56.3325  71
56.4095  63
56.4865  80
56.5635  66
56.6405  89
56.7175  76
56.7945  68
56.8715  61
56.9485  79
57.0255  80
57.1025  66
57.1795  67
57.2565  69
57.3335  80
57.4105  67
57.4875  90
57.5645  70
57.6415  72
57.7185  69
57.7955  78
57.8725  70
57.9495  72
58.0265  79
58.1035  60
58.1805  84
58.2575  115
58.3345  111
58.4115  142
58.4885  146
58.5655  141
58.6425  184
58.7195  167
58.7965  150
58.8735  150
58.9505  104
59.0275  121
59.1045  87
59.1815  73
59.2585  58
59.3355  90
59.4125  70
59.4895  58
59.5665  81
59.6435  74
59.7205  80
59.7975  71
59.8745  75
59.9515  67
60.0285  76
60.1055  58
60.1825  64
60.2595  85
60.3365  62
60.4135  62
60.4905  68
60.5675  50
60.6445  63
60.7215  66
60.7985  71
60.8755  71
60.9525  50
61.0295  67
61.1065  57
61.1835  60
61.2605  44
61.3375  70
61.4145  63
61.4915  55
61.5685  55
61.6455  56
61.7225  70
61.7995  75
61.8765  62
61.9535  57
62.0305  54
62.1075  72
62.1845  58
62.2615  60
62.3385  58
62.4155  57
62.4925  62
62.5695  61
62.6465  50
62.7235  40
62.8005  38
62.8775  59
62.9545  66
63.0315  60
63.1085  57
63.1855  61
63.2625  57
63.3395  60
63.4165  48
63.4935  43
63.5705  56
63.6475  57
63.7245  42
63.8015  55
63.8785  50
63.9555  57
64.0325  68
64.1095  55
64.1865  60
64.2635  54
64.3405  56
64.4175  56
64.4945  51
64.5715  55
64.6485  62
64.7255  51
64.8025  54
64.8795  66
64.9565  55
65.0335  70
65.1105  52
65.1875  35
65.2645  57
65.3415  58
65.4185  60
65.4955  51
65.5725  49
65.6495  54
65.7265  55
65.8035  58
65.8805  48
65.9575  60
66.0345  45
66.1115  51
66.1885  63
66.2655  53
66.3425  46
66.4195  63
66.4965  58
66.5735  47
66.6505  57
66.7275  41
66.8045  55
66.8815  49
66.9585  50
67.0355  55
67.1125  45
67.1895  61
67.2665  54
67.3435  52
67.4205  59
67.4975  44
67.5745  59
67.6515  53
67.7285  62
67.8055  54
67.8825  59
67.9595  50
68.0365  56
68.1135  55
68.1905  50
68.2675  56
68.3445  64
68.4215  69
68.4985  52
68.5755  56
68.6525  53
68.7295  53
68.8065  46
68.8835  55
68.9605  66
69.0375  60
69.1145  46
69.1915  60
69.2685  50
69.3455  46
69.4225  42
69.4995  52
69.5765  55
69.6535  50
69.7305  45
69.8075  64
69.8845  30
69.9615  53
