100	5070.6475
101.49385	5082.8267
102.9877	5270.3931
104.48154	5177.4678
105.9754	5067.2925
107.46925	5107.1211
108.9631	5098.1831
110.45694	4876.6885
111.95079	4921.6914
113.44464	4906.4165
114.93849	4759.5752
116.43233	4653.439
117.92619	4863.2881
119.42004	4892.9243
120.91389	4866.0532
122.40773	4763.4819
123.90158	4563.853
125.39543	4417.3315
126.88928	4273.0205
128.38313	4130.0132
129.87698	4039.1497
131.37082	4006.9348
132.86467	3968.0945
134.35852	3990.0942
135.85237	4011.4834
137.34622	3978.7522
138.84007	3925.6768
140.33392	3934.8684
141.82777	4066.1558
143.32161	4029.6772
144.81546	3930.0513
146.30931	3924.4673
147.80316	4017.9897
149.29701	3864.5654
150.79086	3871.0876
152.28471	3888.5999
153.77856	3911.5942
155.27242	3946.1948
156.76625	3999.7886
158.2601	4038.1824
159.75395	3961.5034
161.2478	3855.0759
162.74165	3839.5032
164.2355	3952.7498
165.72935	3996.0786
167.22321	4036.2903
168.71704	4039.8091
170.21089	4038.3411
171.70474	4046.3093
173.19859	4055.7998
174.69244	4037.7961
176.18629	4045.3828
177.68015	4086.8003
179.174	4140.1406
180.66783	4168.6646
182.16168	4122.749
183.65553	4101.3018
185.14938	4128.1807
186.64323	4158.3843
188.13708	4174.6953
189.63094	4189.9438
191.12479	4238.3101
192.61862	4230.853
194.11247	4246.1089
195.60632	4271.958
197.10017	4280.959
198.59402	4261.2461
200.08788	4203.4668
201.58173	4251.8408
203.07558	4259.5005
204.56943	4224.7261
206.06326	4216.293
207.55711	4149.6968
209.05096	4120.8364
210.54482	4133.1694
212.03867	4113.4438
213.53252	4048.0134
215.02637	4021.1616
216.52022	4149.5464
218.01405	4019.116
219.5079	4011.7922
221.00175	4059.0703
222.49561	4007.5034
223.98946	3981.1475
225.48331	4020.1365
226.97716	4006.6025
228.47101	4010.9417
229.96484	4027.9919
231.45869	3994.4875
232.95255	3917.8157
234.4464	3963.6694
235.94025	4000.5991
237.4341	4033.2617
238.92795	4072.6724
240.4218	4100.5981
241.91563	4027.1531
243.40948	4055.9612
244.90334	4103.1025
246.39719	4096.9595
247.89104	4026.7185
249.38489	4014.3306
250.87874	4087.8818
252.37259	4076.4377
253.86644	4038.5366
255.36028	4038.1252
256.85413	4096.1455
258.34799	4066.3848
259.84183	3970.5583
261.33566	4056.5139
262.82953	4125.6108
264.32336	4078.543
265.81723	3989.4775
267.31107	4044.9185
268.80493	4000.8022
270.29877	4020.4941
271.79263	4025.8982
273.28647	4005.094
274.7803	4099.314
276.27417	4107.5972
277.76801	4034.083
279.26187	3977.833
280.75571	4001.0557
282.24957	4095.8855
283.74341	4147.9058
285.23724	4045.0962
286.73111	4000.9319
288.22495	3991.9307
289.71881	4003.8916
291.21265	4019.6333
292.70651	4000.5496
294.20035	3962.9231
295.69421	3947.0115
297.18805	3960.6716
298.68188	3965.9387
300.17575	3930
301.66959	3930
303.16345	3926.0696
304.65729	3962.0002
306.15115	3916.9607
307.64499	3816.2771
309.13885	3781.5647
310.63269	3846.3362
312.12653	3788.4971
313.62039	3755.5212
315.11423	3762.9668
316.60809	3805.2876
318.10193	3851.2144
319.59579	3768.9253
321.08963	3693.3948
322.58347	3694.0049
324.07733	3731.2195
325.57117	3749.5601
327.06503	3719.4138
328.55887	3741.0713
330.05273	3694.4849
331.54657	3751.1045
333.04044	3724.1833
334.53427	3610.7151
336.02811	3596.0854
337.52197	3706.1453
339.01581	3647.666
340.50967	3516.2344
342.00351	3451.2605
343.49738	3473.3689
344.99121	3501.5657
346.48505	3541.6262
347.97891	3522.8306
349.47275	3447.0769
350.96661	3429.2314
352.46045	3452.7964
353.95432	3414.5913
355.44815	3395.3772
356.94202	3390.1216
358.43585	3337.0342
359.92969	3306.2358
361.42355	3334.7634
362.91739	3389.0337
364.41125	3312.1025
365.90509	3322.252
367.39896	3263.1729
368.89279	3267.3755
370.38666	3314.6982
371.88049	3288.9246
373.37433	3137.4241
374.86819	3208.5842
376.36203	3283.2041
377.8559	3272.0759
379.34973	3240.0271
380.8436	3272.1614
382.33743	3308.9653
383.83127	3260.3616
385.32513	3192.1255
386.81897	3192.8389
388.31284	3229.1875
389.80667	3238.1328
391.30054	3205.061
392.79437	3206.7388
394.28824	3264.3716
395.78207	3211.8284
397.27591	3145.8982
398.76978	3150.7634
400.26361	3188.9236
401.75748	3251.0554
403.25131	3176.6951
404.74518	3214.0249
406.23901	3229.7661
407.73288	3210.8103
409.22672	3266.5313
410.72055	3231.1921
412.21442	3236.0957
413.70825	3138.5923
415.20212	3120.8904
416.69595	3129.9941
418.18982	3053.1709
419.68365	3081.7732
421.17749	3055.2573
422.67136	3099.4524
424.16519	3127.1528
425.65906	3114.3989
427.15289	3097.7776
428.64676	3144.584
430.14059	3080.5015
431.63446	3073.4612
433.1283	3107.8142
434.62213	3116.3704
436.116	3091.9651
437.60983	3081.9241
439.1037	3023.7556
440.59753	3032.6204
442.0914	3149.772
443.58524	3189.3401
445.07907	3149.7517
446.57294	3123.9006
448.06677	3102.7578
449.56064	3076.5632
451.05447	3110.3411
452.54834	3132.9553
454.04218	3153.8359
455.53604	3172.9814
457.02988	3149.4207
458.52371	3109.7134
460.01758	3092.1968
461.51141	3056.7769
463.00528	3096.9265
464.49911	3145.2622
465.99298	3088.2168
467.48682	3061.1565
468.98068	3126.5906
470.47452	3115.6208
471.96835	3084.1719
473.46222	3070.9434
474.95605	3066.7505
476.44992	3027.8196
477.94376	3059.9905
479.43762	3066.0737
480.93146	3068.2312
482.42529	3073.6318
483.91916	3057.5432
485.41299	3023.136
486.90686	3092.8975
488.4007	3077.623
489.89456	3008.9971
491.3884	3011.2861
492.88226	3013.6465
494.3761	2982.4756
495.86993	2993.6758
497.3638	3025.9148
498.85764	2966.8154
500.3515	2965.158
501.84534	2980.887
503.3392	2935.5728
504.83304	2833.5754
506.3269	2833.3145
507.82074	2778.9536
509.31458	2807.6028
510.80844	2825.3252
512.30231	2807.3423
513.79614	2786.729
515.28998	2801.2866
516.78381	2791.072
518.27771	2743.6604
519.77155	2789.2896
521.26538	2802.6016
522.75922	2774.4697
524.25305	2761.7344
525.74695	2802.1267
527.24078	2719.468
528.73462	2766.5415
530.22845	2769.7939
531.72229	2724.2339
533.21619	2692.5962
534.71002	2710.7212
536.20386	2726.5146
537.69769	2707.7673
539.19159	2743.0981
540.68542	2757.1316
542.17926	2726.4058
543.6731	2695.9863
545.16693	2718.2937
546.66083	2769.6685
548.15466	2720.1863
549.6485	2736.4246
551.14233	2760.251
552.63623	2764.6174
554.13007	2778.0774
555.6239	2815.6069
557.11774	2768.8281
558.61157	2804.7437
560.10547	2728.325
561.5993	2782.7268
563.09314	2833.323
564.58698	2805.6328
566.08087	2766.4307
567.57471	2752.4575
569.06854	2816.6638
570.56238	2699.1238
572.05621	2696.7073
573.55011	2722.0916
575.04395	2709
576.53778	2699.3823
578.03162	2642.0627
579.52551	2754.3411
581.01935	2741.5505
582.51318	2793.574
584.00702	2791.8708
585.50085	2715.2732
586.99475	2696.0342
588.48859	2726.0034
589.98242	2727.7197
591.47626	2684.9187
592.97009	2689.9011
594.46399	2697.7483
595.95782	2687.5845
597.45166	2679.6365
598.9455	2627.5649
600.43939	2676.5298
601.93323	2700.019
603.42706	2701.8877
604.9209	2640.4514
606.41473	2601.1052
607.90863	2668.0186
609.40247	2628.2354
610.8963	2635.9753
612.39014	2626.551
613.88403	2646.054
615.37787	2626.0061
616.8717	2619.6348
618.36554	2699.675
619.85938	2738.9714
621.35327	2613.2603
622.84711	2759.4602
624.34094	2756.4695
625.83478	2694.4573
627.32867	2673.7673
628.82251	2713.0107
630.31635	2757.7798
631.81018	2612.1018
633.30402	2681.4375
634.79791	2760.1582
636.29175	2769.9458
637.78558	2729.7207
639.27942	2715.5398
640.77332	2772.74
642.26715	2748.5759
643.76099	2730.3057
645.25482	2673.3542
646.74866	2695.405
648.24255	2741.1201
649.73639	2742.7644
651.23022	2721.9949
652.72406	2789.2432
654.21796	2762.4551
655.71179	2730.3921
657.20563	2752.5173
658.69946	2806.292
660.1933	2827.7021
661.68719	2791.1367
663.18103	2760.0625
664.67487	2738.4341
666.1687	2758.0061
667.66254	2775.8088
669.15643	2771.7385
670.65027	2773.1445
672.1441	2775.5046
673.63794	2749.293
675.13184	2794.7612
676.62567	2739.2549
678.11951	2744.2769
679.61334	2744.7708
681.10718	2702.4475
682.60107	2668.4688
684.09491	2681.6226
685.58875	2661.3923
687.08258	2761.1296
688.57648	2767.1924
690.07031	2724.4587
691.56415	2704.5437
693.05798	2705.4119
694.55182	2725.5959
696.04572	2773.1836
697.53955	2756.7373
699.03339	2743.7109
700.52722	2757.0901
702.02112	2803.7554
703.51495	2788.603
705.00879	2793.7273
706.50262	2855.1785
707.99646	2774.2126
709.49036	2672.3706
710.98419	2785.8687
712.47803	2786.6599
713.97186	2776.8369
715.46576	2834.6982
716.95959	2919.8474
718.45343	2938.7649
719.94727	2890.7268
721.4411	2818.4707
722.935	2879.8789
724.42883	2899.3843
725.92267	2914.7126
727.4165	2927.6807
728.91034	2953.3428
730.40424	3002.1257
731.89807	2962.0356
733.39191	2962.9072
734.88574	3058.1763
736.37964	3008.0164
737.87347	2957.5469
739.36731	3001.9407
740.86115	3074.6882
742.35498	3054.7117
743.84888	3052.5928
745.34271	3031.6184
746.83655	2958.7085
748.33038	2971.4492
749.82428	3009.9324
751.31812	3025.6863
752.81195	2999.9097
754.30579	2942.2178
755.79962	2975.6619
757.29352	2941.5737
758.78735	2911.9929
760.28119	2914.7632
761.77502	2911.8555
763.26892	2913.3438
764.76276	2940.0837
766.25659	2962.5869
767.75043	2920.3711
769.24426	2863.4836
770.73816	2856.761
772.23199	2804.0779
773.72583	2814.0662
775.21967	2816.9104
776.71356	2794.8171
778.2074	2875.0835
779.70123	2814.9426
781.19507	2768.4412
782.6889	2803.2925
784.1828	2816.3035
785.67664	2786.8369
787.17047	2769.7712
788.66431	2788.5583
790.15814	2807.6282
791.65204	2847.3254
793.14587	2854.3538
794.63971	2780.8779
796.13354	2796.4563
797.62744	2882.324
799.12128	2877.7148
800.61511	2803.3765
802.10895	2817.0151
803.60278	2837.0427
805.09668	2874.8716
806.59052	2852.9204
808.08435	2829.5527
809.57819	2842.6262
811.07208	2885.1765
812.56592	2905.0981
814.05975	2887.1467
815.55359	2908.6035
817.04742	2969.3833
818.54132	2932.4998
820.03516	2973.7024
821.52899	2971.866
823.02283	2914.0076
824.51672	2929.3718
826.01056	3034.3552
827.50439	3058.752
828.99823	3002.3005
830.49207	2945.8411
831.98596	3063.6191
833.4798	3157.095
834.97363	3125.9565
836.46747	3104.6133
837.96136	3101.7161
839.4552	3054.0454
840.94904	3101.5359
842.44287	3080.3354
843.93671	3091.3047
845.4306	3102.792
846.92444	3124.4739
848.41827	3094.3628
849.91211	3097.51
851.40601	3154.3958
852.89984	3151.4749
854.39368	3161.2971
855.88751	3059.5566
857.38135	3097.7026
858.87524	3072.7849
860.36908	2954.9561
861.86292	3021.7542
863.35675	3117.8643
864.85059	3040.1348
866.34448	3072.1165
867.83832	3119.9858
869.33215	3050.877
870.82599	2961.8049
872.31989	2962.8987
873.81372	2929.0481
875.30756	2923.4446
876.80139	2928.8118
878.29523	2887.6282
879.78912	2919.811
881.28296	2895.6023
882.77679	2829.0505
884.27063	2831.1538
885.76453	2818.6138
887.25836	2811
888.7522	2821.6729
890.24603	2817.03
891.73987	2785.1992
893.23376	2796.937
894.7276	2772.0586
896.22144	2777.3196
897.71527	2784.2104
899.20917	2692.1509
900.703	2673.2915
902.19684	2705.3242
903.69067	2711.3318
905.18451	2710.7161
906.67841	2741.624
908.17224	2692.3516
909.66608	2776.9058
911.15991	2806.5977
912.65381	2771.5457
914.14764	2808.5364
915.64148	2797.2227
917.13531	2779.2227
918.62915	2844.4255
920.12305	2779.7356
921.61688	2854.7173
923.11072	2967.0259
924.60455	2925.7131
926.09839	2867.7026
927.59229	2864.4937
929.08612	2887.0632
930.57996	2885.5684
932.07379	2882.1267
933.56769	2928.6436
935.06152	2897.2126
936.55536	2935.5986
938.04919	2883.5305
939.54303	2991.4507
941.03693	2974.9954
942.53076	2970.645
944.0246	2978.9771
945.51843	2927.8745
947.01233	2872.7749
948.50616	2840.9731
950	2812.364
951.49384	2794.3228
952.98767	2810.6802
954.48157	2803.8748
955.9754	2779.803
957.46924	2746.9763
958.96307	2734.3481
960.45697	2731.9038
961.95081	2697.1553
963.44464	2809.9441
964.93848	2673.8215
966.43231	2660.8069
967.92621	2687.9177
969.42004	2697.3687
970.91388	2646.843
972.40771	2592.6555
973.90161	2564.551
975.39545	2540.748
976.88928	2571.5347
978.38312	2567.1523
979.87695	2509.675
981.37085	2469.2292
982.86469	2487.8584
984.35852	2460.8628
985.85236	2467.2144
987.34619	2478.3159
988.84009	2433.0815
990.33392	2397.5894
991.82776	2403.5107
993.32159	2399.0188
994.81549	2399
996.30933	2387.8621
997.80316	2393.3359
999.297	2394.0281
1000.7908	2354.4128
1002.2847	2314.0278
1003.7786	2311.8828
1005.2724	2330.1768
1006.7662	2392.8896
1008.2601	2354.1941
1009.754	2266.1335
1011.2478	2280.7329
1012.7416	2286.3015
1014.2355	2312.9846
1015.7294	2314.9563
1017.2232	2280.4729
1018.717	2274.8943
1020.2109	2328.0935
1021.7048	2329.9055
1023.1986	2248.0762
1024.6924	2336.4314
1026.1863	2322.988
1027.6802	2379.0452
1029.174	2416.6677
1030.6678	2409.2839
1032.1617	2408.2273
1033.6555	2410.48
1035.1494	2391.3958
1036.6432	2425.947
1038.1371	2386.6614
1039.631	2356.8269
1041.1248	2401.6938
1042.6187	2429.5894
1044.1124	2431.3938
1045.6063	2448.6968
1047.1002	2416.8196
1048.594	2394.2124
1050.0879	2455.8567
1051.5817	2488.6511
1053.0756	2531.6497
1054.5695	2528.0271
1056.0632	2491.1362
1057.5571	2494.2456
1059.051	2521.6023
1060.5448	2444.3193
1062.0387	2452.271
1063.5325	2478.9504
1065.0264	2450.4233
1066.5203	2488.0579
1068.014	2521.2073
1069.5079	2447.5681
1071.0017	2520.1567
1072.4956	2443.6509
1073.9895	2469.4202
1075.4833	2460.0662
1076.9772	2447.4277
1078.4709	2455.0693
1079.9648	2485.9968
1081.4587	2477.9097
1082.9525	2400.6584
1084.4464	2423.9912
1085.9402	2491.2424
1087.4341	2456.698
1088.928	2449.813
1090.4218	2443.5835
1091.9156	2433.1174
1093.4095	2411.8049
1094.9033	2408.5562
1096.3972	2428.5867
1097.891	2451.4785
1099.3849	2466.8733
1100.8788	2465.7732
1102.3726	2423.1653
1103.8665	2425.8975
1105.3602	2407.5889
1106.8541	2378.2178
1108.348	2372.3977
1109.8418	2403.5461
1111.3357	2412.5425
1112.8295	2426.8989
1114.3234	2461.8096
1115.8173	2464.6099
1117.311	2445.3562
1118.8049	2417.2183
1120.2988	2463.8047
1121.7926	2359.5005
1123.2865	2425.3948
1124.7803	2497.0718
1126.2742	2498.2063
1127.7681	2538.55
1129.2618	2541.9001
1130.7557	2527.6399
1132.2495	2542.5903
1133.7434	2501.5852
1135.2373	2566.9651
1136.7311	2580.9922
1138.225	2601.1064
1139.7188	2547.7595
1141.2126	2595.2676
1142.7065	2627.6064
1144.2003	2628.8015
1145.6942	2642.6663
1147.188	2648.0889
1148.6819	2649.9182
1150.1758	2674
1151.6696	2657.5535
1153.1635	2599.4434
1154.6573	2667.1145
1156.1511	2729.4128
1157.645	2695.0061
1159.1388	2667.1367
1160.6327	2649.8374
1162.1266	2696.6677
1163.6204	2675.7571
1165.1143	2663.1611
1166.608	2714.1787
1168.1019	2749.1118
1169.5958	2794.1587
1171.0896	2777.166
1172.5835	2734.9211
1174.0773	2733.083
1175.5712	2689.168
1177.0651	2792.835
1178.5588	2838.1501
1180.0527	2783.5093
1181.5466	2682.1812
1183.0404	2657.8262
1184.5343	2693.53
1186.0281	2702.1182
1187.522	2708.9998
1189.0159	2713.7031
1190.5096	2740.7964
1192.0035	2750.9148
1193.4973	2747.3464
1194.9912	2741.165
1196.4851	2740
1197.9789	2686.6296
1199.4728	2672.3408
1200.9666	2671.1816
1202.4604	2717.1484
1203.9543	2760.3154
1205.4481	2692.583
1206.942	2638.4651
1208.4359	2648.6404
1209.9297	2653.7617
1211.4236	2667.5896
1212.9174	2579.3223
1214.4113	2697.5889
1215.9052	2731.1912
1217.3989	2669.1709
1218.8928	2676.4395
1220.3866	2690.178
1221.8805	2634.7673
1223.3744	2666.3054
1224.8682	2774.9028
1226.3621	2677.792
1227.8558	2748.3357
1229.3497	2786.9294
1230.8436	2736.98
1232.3374	2659.8979
1233.8313	2666.1294
1235.3251	2721.9617
1236.819	2755.3738
1238.3129	2698.0139
1239.8066	2767.3604
1241.3005	2797.0811
1242.7944	2736.6433
1244.2882	2752.1101
1245.7821	2734.3848
1247.2759	2781.7666
1248.7698	2744.3472
1250.2637	2787.5071
1251.7574	2761.5439
1253.2513	2796.6338
1254.7451	2794.8022
1256.239	2864.2883
1257.7329	2897.5447
1259.2267	2845.1213
1260.7206	2832.5527
1262.2144	2908.9929
1263.7083	2955.3845
1265.2021	2908.4453
1266.6959	2891.4397
1268.1898	2970.687
1269.6837	2985.7712
1271.1775	3048.7517
1272.6714	2949.3027
1274.1652	3032.678
1275.6591	3057.2058
1277.153	3005.2268
1278.6467	2954.6223
1280.1406	3031.719
1281.6344	3098.0837
1283.1283	3084.6504
1284.6222	3064.4714
1286.116	3068.8862
1287.6099	3096.6868
1289.1036	3139.1523
1290.5975	3159.7471
1292.0914	3206.0283
1293.5852	3157.5845
1295.0791	3086.5942
1296.5729	3133.167
1298.0668	3184.5681
1299.5607	3162.1143
1301.0544	3118.0132
1302.5483	3102.6882
1304.0422	3118.3701
1305.536	3123.9929
1307.0299	3127.5925
1308.5237	3123.9355
1310.0176	3059.8572
1311.5115	3091.0464
1313.0052	3092.3877
1314.4991	3197.4221
1315.9929	3148.8516
1317.4868	3213.5703
1318.9807	3149.2681
1320.4745	3131.9255
1321.9684	3135.9229
1323.4622	3083.7622
1324.9561	3063.3274
1326.45	3115.8259
1327.9437	3147.4375
1329.4376	3112.8508
1330.9315	3079.0515
1332.4253	3048.6941
1333.9192	2988.0168
1335.413	3087.873
1336.9069	3092.2288
1338.4008	3065.04
1339.8945	3008.8892
1341.3884	3081.7295
1342.8822	3109.196
1344.3761	3139.1489
1345.87	3065.8792
1347.3638	3062.2354
1348.8577	3108.7793
1350.3514	3123.0225
1351.8453	3144.938
1353.3392	3167.1169
1354.833	3159.9832
1356.3269	3151.9055
1357.8207	3064.1921
1359.3146	3217.7249
1360.8085	3111.6624
1362.3022	3147.0635
1363.7961	3153.6372
1365.29	3199.3162
1366.7838	3222.3914
1368.2777	3233.6873
1369.7715	3201.2712
1371.2654	3277.2781
1372.7593	3294.7297
1374.2531	3229.4673
1375.7469	3221.2014
1377.2407	3277.3013
1378.7346	3313.6072
1380.2285	3291.25
1381.7223	3235.583
1383.2162	3285.7324
1384.71	3274.9697
1386.2039	3399.3279
1387.6978	3315.1636
1389.1915	3341.5378
1390.6854	3384.8701
1392.1793	3389.1667
1393.6731	3272.5215
1395.167	3337.6582
1396.6608	3395.2312
1398.1547	3331.5842
1399.6486	3331.8721
1401.1423	3351.7332
1402.6362	3348.2224
1404.13	3351.4009
1405.6239	3295.5598
1407.1178	3262.9033
1408.6116	3305.7888
1410.1055	3239.9336
1411.5992	3297.7434
1413.0931	3306.5867
1414.587	3353.8184
1416.0808	3338.9238
1417.5747	3324.6746
1419.0685	3275.4829
1420.5624	3224.6667
1422.0563	3302.3477
1423.55	3282.1511
1425.0439	3285.7263
1426.5378	3302.3022
1428.0316	3301.5132
1429.5255	3270.2256
1431.0193	3251.3396
1432.5132	3267.0085
1434.0071	3241.5564
1435.5009	3225.9941
1436.9948	3223.7549
1438.4885	3241.8962
1439.9824	3186.1704
1441.4763	3160.3762
1442.9701	3190.7412
1444.464	3166.5374
1445.9578	3213.0627
1447.4517	3130.8657
1448.9456	3036.7781
1450.4393	3145.0461
1451.9332	3175.8811
1453.4271	3156.2556
1454.9209	3124.3315
1456.4148	3084.9558
1457.9086	3071.3696
1459.4025	3077.8774
1460.8964	3116.3992
1462.3901	3141.2866
1463.884	3083.2925
1465.3778	3088.8503
1466.8717	3036.6111
1468.3656	2980.3601
1469.8594	2995.6929
1471.3533	2956.5979
1472.847	2968.2539
1474.3409	3095.8625
1475.8348	2919.7678
1477.3286	3017.0015
1478.8225	3079.0393
1480.3163	3053.8101
1481.8102	3055.9263
1483.3041	3073.0847
1484.7979	3019.0217
1486.2917	3109.6677
1487.7856	3132.2842
1489.2794	3085.5833
1490.7733	3086.4739
1492.2671	3091.6658
1493.761	3121.3716
1495.2549	3132.3916
1496.7487	3182.3694
1498.2426	3185.7131
1499.7363	3227.533
1501.2302	3183.1353
1502.7241	3163.7998
1504.2179	3173.9607
1505.7118	3199.7649
1507.2056	3261.6421
1508.6995	3225.2058
1510.1934	3317.3984
1511.6871	3330.5486
1513.181	3276.6179
1514.6749	3336.3176
1516.1687	3280.7004
1517.6626	3387.5903
1519.1564	3455.5481
1520.6503	3440.1494
1522.1442	3494.7039
1523.6379	3515.2568
1525.1318	3500.7932
1526.6256	3518.0398
1528.1195	3499.5754
1529.6134	3494.6563
1531.1072	3488.4175
1532.6011	3545.8245
1534.0948	3541.885
1535.5887	3611.1829
1537.0826	3588.4648
1538.5764	3586.0613
1540.0703	3616.3569
1541.5641	3664.3406
1543.058	3672.5735
1544.5519	3744.7161
1546.0457	3767.626
1547.5396	3739.3445
1549.0334	3642.1541
1550.5272	3636.7727
1552.0211	3758.4514
1553.5149	3782.083
1555.0088	3720.1218
1556.5027	3706.5422
1557.9965	3681.1604
1559.4904	3737.5981
1560.9841	3817.9077
1562.478	3747.644
1563.9719	3721.7793
1565.4657	3823.9531
1566.9596	3803.7229
1568.4534	3743.2837
1569.9473	3749.2405
1571.4412	3714.5142
1572.9349	3745.2905
1574.4288	3737.0747
1575.9227	3738.7241
1577.4165	3785.5256
1578.9104	3750.2644
1580.4042	3816.3523
1581.8981	3763.2559
1583.392	3651.8374
1584.8857	3717.5728
1586.3796	3717.1426
1587.8734	3693.373
1589.3673	3649.6038
1590.8612	3688.4775
1592.355	3728.0142
1593.8489	3689.2371
1595.3427	3697.075
1596.8365	3677.9744
1598.3304	3680.6824
1599.8242	3676.2024
1601.3181	3618.0029
1602.812	3561.8667
1604.3058	3561.9192
1605.7997	3577.1702
1607.2935	3557.989
1608.7874	3574.6213
1610.2813	3586.5979
1611.775	3459.8306
1613.2689	3414.9875
1614.7627	3482.8474
1616.2566	3406.4045
1617.7505	3355.1287
1619.2443	3299.4063
1620.7382	3380.9458
1622.2319	3298.1453
1623.7258	3299.9683
1625.2197	3167.2847
1626.7135	3067.1519
1628.2074	3091.4165
1629.7012	3045.5815
1631.1951	3067.7637
1632.689	3021.1541
1634.1827	3000.3909
1635.6766	2977.231
1637.1705	2854.2563
1638.6643	2913.2461
1640.1582	2897.9722
1641.652	2919.1833
1643.1459	2859.8325
1644.6398	2776.6348
1646.1335	2775.7771
1647.6274	2787.5679
1649.1212	2722.6765
1650.6151	2631.1863
1652.109	2597.2896
1653.6028	2643.6455
1655.0967	2615.9609
1656.5905	2578.4285
1658.0844	2611.2441
1659.5782	2559.7949
1661.072	2515.9255
1662.5659	2542.9172
1664.0598	2558.2725
1665.5536	2487.0974
1667.0475	2464.1492
1668.5413	2488.3962
1670.0352	2445.1462
1671.5291	2431.6382
1673.0228	2398.5415
1674.5167	2373.2288
1676.0105	2356.8926
1677.5044	2315.6899
1678.9983	2338.554
1680.4921	2323.8079
1681.986	2311.9541
1683.4797	2290.6455
1684.9736	2338.7727
1686.4675	2338.3
1687.9613	2299.9915
1689.4552	2255.646
1690.949	2263.6599
1692.4429	2276.0591
1693.9368	2267.7378
1695.4305	2264.4119
1696.9244	2278.8911
1698.4183	2228.3538
1699.9121	2221.1887
1701.406	2188.0342
1702.8998	2170.8406
1704.3937	2179.4854
1705.8876	2182.6887
1707.3813	2202.2268
1708.8752	2202.6782
1710.369	2182.9021
1711.8629	2127.448
1713.3568	2126.7239
1714.8506	2154.9868
1716.3445	2148.29
1717.8383	2113.6455
1719.3322	2122.6768
1720.826	2125.1365
1722.3198	2095.3362
1723.8137	2088.3184
1725.3076	2130.988
1726.8014	2159.5266
1728.2953	2144.9702
1729.7891	2101.5149
1731.283	2118.9402
1732.7769	2111.2524
1734.2706	2082.2295
1735.7645	2078.9146
1737.2583	2083.7451
1738.7522	2102.1685
1740.2461	2109.3286
1741.7399	2093.363
1743.2338	2097.9915
1744.7275	2107.655
1746.2214	2104.8945
1747.7153	2066.5159
1749.2091	2090.9502
1750.703	2088.009
1752.1968	2115.3972
1753.6907	2096.4209
1755.1846	2075.5105
1756.6783	2079.958
1758.1722	2087.905
1759.6661	2127.0439
1761.1599	2153.6292
1762.6538	2165.3877
1764.1476	2112.4341
1765.6415	2112.552
1767.1354	2087.7512
1768.6292	2072.1519
1770.123	2107.6042
1771.6168	2065.2334
1773.1107	2130.9363
1774.6046	2094.5588
1776.0984	2170.4373
1777.5923	2160.374
1779.0861	2103.1987
1780.58	2099.5396
1782.0739	2090.1099
1783.5676	2151.3201
1785.0615	2029.2581
1786.5554	2061.4707
1788.0492	2105.1711
1789.5431	2150.1721
1791.0369	2071.7371
1792.5308	2065.5103
1794.0247	2056.9602
1795.5184	2062.6912
1797.0123	2091.4324
1798.5061	1990.6108
1800	2076.4604
1801.4939	2039.7612
1802.9877	2059.3264
1804.4816	2024.7361
1805.9753	2053.845
1807.4692	2036.6842
1808.9631	2014.4033
1810.4569	2028.9067
1811.9508	2030.5333
1813.4446	2009.9476
1814.9385	1986.4091
1816.4324	1994.9287
1817.9261	1964.5941
1819.42	1957.9592
1820.9139	2030.5165
1822.4077	2030.2773
1823.9016	1994.2792
1825.3954	1987.8873
1826.8893	1945.9613
1828.3832	1938.5931
1829.877	1929.2057
1831.3708	1934.0526
1832.8646	1960.6089
1834.3585	1953.252
1835.8524	1933.4261
1837.3462	1954.9667
1838.8401	1947.8452
1840.3339	1897.9977
1841.8278	1918.9531
1843.3217	1910.0762
1844.8154	1889.0847
1846.3093	1935.0707
1847.8032	1948.9875
1849.297	1923.7231
1850.7909	1914.5242
1852.2847	1899.5593
1853.7786	1907.0605
1855.2725	1917.4746
1856.7662	1921.6053
1858.2601	1916.5781
1859.7539	1928.975
1861.2478	1940.1416
1862.7417	1905.5719
1864.2355	1908.4379
1865.7294	1884.182
1867.2231	1911.5302
1868.717	1950.983
1870.2109	1925.118
1871.7047	1949.0378
1873.1986	1970.2319
1874.6924	1957.3016
1876.1863	1969.2672
1877.6802	1982.0969
1879.174	2004.3293
1880.6678	2002.2382
1882.1617	1998.1652
1883.6555	1992.9775
1885.1494	1990.7396
1886.6432	1967.8188
1888.1371	1948.3931
1889.631	1905.0399
1891.1248	1906.3286
1892.6187	1969.2036
1894.1124	1996.8594
1895.6063	1999.6226
1897.1002	2031.4329
1898.594	2029.8512
1900.0879	1983.7303
1901.5817	1991.1469
1903.0756	2030.3094
1904.5695	2006.1815
1906.0632	2019.4276
1907.5571	2043.0905
1909.051	1987.6575
1910.5448	1968.54
1912.0387	1971.073
1913.5325	1970.5914
1915.0264	1986.0444
1916.5203	1977.6482
1918.014	1952.5503
1919.5079	1938.5343
1921.0017	1917.2749
1922.4956	1916.6448
1923.9895	1940.0693
1925.4833	1955.4606
1926.9772	1967.395
1928.4709	1968.3973
1929.9648	1954.1771
1931.4587	1935.6317
1932.9525	1931.2463
1934.4464	1926.8442
1935.9402	1931.0609
1937.4341	1929.9504
1938.928	1914.7124
1940.4218	1886.8839
1941.9156	1909.7102
1943.4095	1925.8002
1944.9033	1911.6735
1946.3972	1854.226
1947.891	1859.0664
1949.3849	1877.7297
1950.8788	1881.8965
1952.3726	1884.8778
1953.8665	1858.7162
1955.3602	1843.1609
1956.8541	1793.4965
1958.348	1801.0649
1959.8418	1850.6516
1961.3357	1822.4603
1962.8295	1797.0808
1964.3234	1783.1746
1965.8173	1786.9514
1967.311	1828.5654
1968.8049	1846.0229
1970.2988	1833.3835
1971.7926	1805.2982
1973.2865	1768.1442
1974.7803	1762.4348
1976.2742	1791.134
1977.7681	1805.2825
1979.2618	1822.9583
1980.7557	1776.1917
1982.2495	1779.6095
1983.7434	1802.2368
1985.2373	1767.5127
1986.7311	1765.8223
1988.225	1786.1726
1989.7188	1794.6703
1991.2126	1764.1282
1992.7065	1770.3538
1994.2003	1748.5105
1995.6942	1775.5178
1997.188	1794.8884
1998.6819	1739.5189
2000.1758	1781.5913
2001.6696	1861.2844
2003.1635	1803.8772
2004.6573	1786.4679
2006.1511	1832.4337
2007.645	1838.3579
2009.1388	1828.8132
2010.6327	1880.2207
2012.1266	1825.9619
2013.6204	1832.8738
2015.1143	1846.4558
2016.608	1815.2206
2018.1019	1885.6914
2019.5958	1867.4988
2021.0896	1841.7998
2022.5835	1858.8457
2024.0773	1853.3025
2025.5712	1868.5441
2027.0651	1908.4546
2028.5588	1861.0923
2030.0527	1895.0624
2031.5466	1793.1853
2033.0404	1940.7307
2034.5343	1876.2247
2036.0281	1873.7125
2037.522	1959.208
2039.0159	1835.4242
2040.5096	1871.7983
2042.0035	1937.2952
2043.4973	1933.0461
2044.9912	1903.9121
2046.4851	1906.4027
2047.9789	1918.2505
2049.4727	1966.3191
2050.9666	1916.1
2052.4604	1935.9141
2053.9543	1926.6202
2055.4482	1894.9275
2056.9419	1876.3652
2058.4358	1933.1501
2059.9297	1954.686
2061.4236	1923.7709
2062.9175	1913.6577
2064.4111	1891.8976
2065.905	1874.3248
2067.3989	1911.697
2068.8928	1904.9191
2070.3867	1855.7261
2071.8804	1879.7402
2073.3743	1910.2905
2074.8682	1841.5255
2076.3621	1851.5281
2077.856	1844.2394
2079.3499	1810.0671
2080.8435	1835.9342
2082.3374	1850.7104
2083.8313	1828.2067
2085.3252	1822.3353
2086.8191	1818.0397
2088.3127	1832.1156
2089.8066	1840.1631
2091.3005	1824.7261
2092.7944	1814.2996
2094.2883	1829.3561
2095.782	1770.0406
2097.2759	1817.4211
2098.7698	1779.1385
2100.2637	1814.2832
2101.7576	1779.6592
2103.2512	1711.9309
2104.7451	1705.3057
2106.239	1778.9772
2107.7329	1834.1943
2109.2268	1731.7166
2110.7205	1776.5754
2112.2144	1707.7196
2113.7083	1704.3557
2115.2021	1725.1583
2116.696	1750.1514
2118.1897	1762.8381
2119.6836	1768.1703
2121.1775	1746.7983
2122.6714	1759.7744
2124.1653	1752.6327
2125.6589	1702.2236
2127.1528	1705.7209
2128.6467	1796.0475
2130.1406	1758.4232
2131.6345	1705.5894
2133.1282	1705.4269
2134.6221	1731.3464
2136.116	1728.7346
2137.6099	1690.2317
2139.1038	1712.6663
2140.5977	1731.7571
2142.0913	1729.4033
2143.5852	1713.7539
2145.0791	1695.7502
2146.573	1682.2826
2148.0669	1722.8713
2149.5605	1738.8446
2151.0544	1768.8949
2152.5483	1806.5303
2154.0422	1715.422
2155.5361	1754.8546
2157.0298	1746.2582
2158.5237	1726.3433
2160.0176	1805.3241
2161.5115	1766.8835
2163.0054	1757.0291
2164.499	1792.5552
2165.9929	1837.0331
2167.4868	1862.6918
2168.9807	1847.8906
2170.4746	1803.8224
2171.9683	1770.4565
2173.4622	1813.7076
2174.9561	1829.0292
2176.45	1833.259
2177.9438	1850.4015
2179.4375	1836.8708
2180.9314	1818.5632
2182.4253	1858.4915
2183.9192	1844.451
2185.4131	1903.96
2186.9067	1874.5271
2188.4006	1886.4739
2189.8945	1875.37
2191.3884	1899.7087
2192.8823	1853.4816
2194.376	1897.1663
2195.8699	1891.0796
2197.3638	1884.2408
2198.8577	1916.9014
2200.3516	1887.7632
2201.8455	1851.0549
2203.3391	1834.2308
2204.833	1890.3707
2206.3269	1843.6727
2207.8208	1886.4844
2209.3147	1843.5066
2210.8083	1926.5715
2212.3022	1910.2454
2213.7961	1883.9843
2215.29	1839.5743
2216.7839	1837.0652
2218.2776	1878.438
2219.7715	1905.3074
2221.2654	1899.155
2222.7593	1884.5627
2224.2532	1895.1835
2225.7468	1880.5789
2227.2407	1873.9657
2228.7346	1875
2230.2285	1873.3507
2231.7224	1834.8965
2233.2161	1865.2955
2234.71	1803.5118
2236.2039	1836.7054
2237.6978	1838.9601
2239.1917	1761.4097
2240.6853	1856.571
2242.1792	1805.9102
2243.6731	1783.6305
2245.167	1764.4728
2246.6609	1774.5593
2248.1545	1787.574
2249.6484	1835.2551
2251.1423	1790.4246
2252.6362	1786.4818
2254.1301	1778.1847
2255.624	1704.3225
2257.1177	1768.3816
2258.6116	1829.833
2260.1055	1765.7448
2261.5994	1721.2313
2263.0933	1704.2305
2264.5869	1715.9463
2266.0808	1726.8933
2267.5747	1719.6927
2269.0686	1709.3097
2270.5625	1657.569
2272.0562	1696.4536
2273.55	1757.0367
2275.0439	1706.4818
2276.5378	1696.2856
2278.0317	1712.5393
2279.5254	1705.5403
2281.0193	1673.0262
2282.5132	1683.6279
2284.0071	1666.2987
2285.501	1683.6672
2286.9946	1682.9301
2288.4885	1656
2289.9824	1686.1732
2291.4763	1713.3687
2292.9702	1666.8599
2294.4639	1629.2329
2295.9578	1613.0659
2297.4517	1577.1467
2298.9456	1618.2057
2300.4395	1665.6858
2301.9331	1653.0269
2303.427	1710.9993
2304.9209	1640.5646
2306.4148	1736.739
2307.9087	1745.5273
2309.4023	1702.8695
2310.8962	1668.5187
2312.3901	1668.8207
2313.884	1684.2158
2315.3779	1670.9125
2316.8718	1710.3975
2318.3655	1735.3665
2319.8594	1683.7516
2321.3533	1736.3076
2322.8472	1751.0093
2324.3411	1708.7611
2325.8347	1664.6841
2327.3286	1667.5143
2328.8225	1685.8931
2330.3164	1715.9966
2331.8103	1767.3201
2333.304	1706.0095
2334.7979	1690.1417
2336.2917	1706.0294
2337.7856	1701.5868
2339.2795	1707.8531
2340.7732	1739.2998
2342.2671	1731.111
2343.761	1691.1167
2345.2549	1694.9235
2346.7488	1696.9834
2348.2424	1689.1672
2349.7363	1755.8708
2351.2302	1738.3674
2352.7241	1750.6729
2354.218	1684.4305
2355.7117	1745.9895
2357.2056	1749.0043
2358.6995	1802.2334
2360.1934	1780.575
2361.6873	1728.895
2363.1809	1806.1609
2364.6748	1814.2108
2366.1687	1744.9183
2367.6626	1734.4824
2369.1565	1785.8099
2370.6501	1775.1243
2372.144	1747.0063
2373.6379	1787.3328
2375.1318	1814.7899
2376.6257	1783.2771
2378.1196	1724.3291
2379.6133	1747.1124
2381.1072	1750.6064
2382.6011	1820.2074
2384.095	1714.5935
2385.5889	1762.8783
2387.0825	1767.5455
2388.5764	1806.7211
2390.0703	1796.3257
2391.5642	1785.422
2393.0581	1776.8411
2394.5518	1764.2717
2396.0457	1793.3701
2397.5396	1819.2777
2399.0334	1812.7114
2400.5273	1846.7096
2402.021	1821.9086
2403.5149	1834.6808
2405.0088	1777.2109
2406.5027	1806.5088
2407.9966	1819.9774
2409.4902	1772.7911
2410.9841	1844.3204
2412.478	1831.9055
2413.9719	1814.0497
2415.4658	1836.8368
2416.9595	1833.5734
2418.4534	1809.741
2419.9473	1829.9088
2421.4412	1807.6545
2422.9351	1768.778
2424.4287	1843.6938
2425.9226	1860.7771
2427.4165	1867.6292
2428.9104	1824.7089
2430.4043	1745.401
2431.8979	1815.6619
2433.3918	1755.8845
2434.8857	1781.7383
2436.3796	1789.7059
2437.8735	1795.9124
2439.3674	1870.2241
2440.8611	1821.5654
2442.355	1821.0927
2443.8489	1803.871
2445.3428	1856.4811
2446.8367	1792.2446
2448.3303	1738.7443
2449.8242	1837.5211
2451.3181	1783.3354
2452.812	1775.9668
2454.3059	1733.8607
2455.7996	1824.2811
2457.2935	1804.5391
2458.7874	1791.4121
2460.2813	1803.1624
2461.7751	1807.0355
2463.2688	1803.2642
2464.7627	1781.9512
2466.2566	1744.3513
2467.7505	1737.131
2469.2444	1774.2446
2470.738	1815.3121
2472.2319	1798.8124
2473.7258	1740.8114
2475.2197	1820.5476
2476.7136	1802.6248
2478.2073	1832.4478
2479.7012	1814.6215
2481.1951	1779.1171
2482.689	1815.9587
2484.1829	1804.7424
2485.6765	1773.9069
2487.1704	1729.9709
2488.6643	1797.9696
2490.1582	1793.8306
2491.6521	1782.0242
2493.1458	1738.5786
2494.6396	1764.7378
2496.1335	1779.2758
2497.6274	1793.2906
2499.1213	1793.2744
2500.6152	1825.053
2502.1089	1786.9585
2503.6028	1746.4059
2505.0967	1820.38
2506.5906	1806.6226
2508.0845	1749.1621
2509.5781	1767.2899
2511.072	1843.6421
2512.5659	1782.5105
2514.0598	1808.0928
2515.5537	1793.0635
2517.0474	1805.0004
2518.5413	1795.451
2520.0352	1836.9862
2521.5291	1805.2798
2523.0229	1805.7853
2524.5166	1839.8639
2526.0105	1875.5573
2527.5044	1758.786
2528.9983	1782.5474
2530.4922	1783.7316
2531.9858	1814.639
2533.4797	1811.1456
2534.9736	1792.6913
2536.4675	1861.5149
2537.9614	1856.8455
2539.4551	1833.8247
2540.949	1802.8958
2542.4429	1806.8973
2543.9368	1844.4067
2545.4307	1831.7617
2546.9243	1877.3389
2548.4182	1844.5739
2549.9121	1830.3175
2551.406	1843.451
2552.8999	1897.4263
2554.3936	1883.3148
2555.8875	1876.3121
2557.3813	1877.7477
2558.8752	1836.7776
2560.3691	1861.3568
2561.863	1821.022
2563.3567	1825.3822
2564.8506	1836.5736
2566.3445	1811.51
2567.8384	1878.7743
2569.3323	1871.4965
2570.8259	1917.5056
2572.3198	1927.1437
2573.8137	1903.8884
2575.3076	1872.0497
2576.8015	1881.2008
2578.2952	1853.3716
2579.7891	1910.5045
2581.283	1843.9509
2582.7769	1867.9191
2584.2708	1906.8059
2585.7644	1898.6716
2587.2583	1840.3495
2588.7522	1877.677
2590.2461	1883.9646
2591.74	1912.5983
2593.2336	1812.2157
2594.7275	1893.9944
2596.2214	1932.7574
2597.7153	1877.0762
2599.2092	1858.7283
2600.7029	1889.3705
2602.1968	1906.285
2603.6907	1924.0786
2605.1846	1945.6689
2606.6785	1865.7557
2608.1721	1878.0891
2609.666	1937.1115
2611.1599	1970.3931
2612.6538	1913.4314
2614.1477	1950.2053
2615.6414	1911.751
2617.1353	1894.7209
2618.6292	1865.1223
2620.123	1872.4241
2621.6169	1913.3798
2623.1108	1924.0028
2624.6045	1863.0703
2626.0984	1930.092
2627.5923	1925.0623
2629.0862	1918.1904
2630.5801	1898.2848
2632.0737	1931.8289
2633.5676	1923.1504
2635.0615	1899.5627
2636.5554	1915.2609
2638.0493	1923.6527
2639.543	1872.3616
2641.0369	1886.3789
2642.5308	1897.5248
2644.0247	1876.7836
2645.5186	1937.4406
2647.0122	1893.9163
2648.5061	1870.2119
2650	1914.1498
2651.4939	1889.1497
2652.9878	1886.7079
2654.4814	1889.1674
2655.9753	1893.2106
2657.4692	1943.8607
2658.9631	1910.4757
2660.457	1932.4611
2661.9507	1945.5779
2663.4446	1958.1685
2664.9385	1893.7987
2666.4324	1904.4823
2667.9263	1905.8765
2669.4199	1936.3962
2670.9138	1856.8109
2672.4077	1900.7836
2673.9016	1881.1985
2675.3955	1901.5925
2676.8892	1956.7987
2678.3831	1976.8669
2679.877	1922.0236
2681.3708	1937.1013
2682.8647	1944.7532
2684.3586	1890.0177
2685.8523	1924.7491
2687.3462	1880.77
2688.8401	1979.9452
2690.334	1917.0739
2691.8279	1949.6143
2693.3215	1968.2882
2694.8154	2005.924
2696.3093	1963.3734
2697.8032	1920.6653
2699.2971	1952.5812
2700.7908	1912.3182
2702.2847	1915.3593
2703.7786	1973.7593
2705.2725	1931.4969
2706.7664	1939.0299
2708.26	1935.9354
2709.7539	1983.684
2711.2478	1909.6581
2712.7417	1940.4073
2714.2356	1900.7457
2715.7292	1997.9113
2717.2231	1944.6676
2718.717	1921.2723
2720.2109	1907.4314
2721.7048	1954.842
2723.1985	1963.2667
2724.6924	1959.5593
2726.1863	1967.3939
2727.6802	1961.5371
2729.1741	1977.8572
2730.6677	1991.4259
2732.1616	1969.8296
2733.6555	1929.5455
2735.1494	1924.4531
2736.6433	1923.2976
2738.137	1987.8934
2739.6309	1949.8663
2741.1248	2017.4664
2742.6187	1972.7979
2744.1125	1983.6954
2745.6064	1956.1515
2747.1001	1950.3352
2748.594	1959.025
2750.0879	1942.2175
2751.5818	1953.3524
2753.0757	1967.3899
2754.5693	1909.299
2756.0632	1932.4681
2757.5571	1947.8153
2759.051	1925.3436
2760.5449	1926.6187
2762.0386	1932.4105
2763.5325	1933.5177
2765.0264	1969.7631
2766.5203	1929.9525
2768.0142	1980.7517
2769.5078	1973.0685
2771.0017	1960.9054
2772.4956	1934.3674
2773.9895	1922.1633
2775.4834	1921.6219
2776.9771	1899.8352
2778.4709	1924.5032
2779.9648	1933.7152
2781.4587	1911.1882
2782.9526	1895.1237
2784.4463	1915.2023
2785.9402	1918.0363
2787.4341	1915.5665
2788.928	1913.5989
2790.4219	1942.5319
2791.9155	1922.762
2793.4094	1887.6176
2794.9033	1904.83
2796.3972	1903.3859
2797.8911	1895.358
2799.3848	1932.4198
2800.8787	1931.4725
2802.3726	1915.3613
2803.8665	1889.7313
2805.3604	1952.4072
2806.8542	1978.9729
2808.3479	1951.1473
2809.8418	1896.8435
2811.3357	1889.4834
2812.8296	1932.2964
2814.3235	1902.1056
2815.8171	1885.5477
2817.311	1906.0302
2818.8049	1894.4753
2820.2988	1879.9296
2821.7927	1906.1556
2823.2864	1906.931
2824.7803	1918.8896
2826.2742	1918.613
2827.7681	1921.4518
2829.262	1907.4515
2830.7556	1934.2642
2832.2495	1865.698
2833.7434	1896.995
2835.2373	1875.3191
2836.7312	1885.4877
2838.2249	1874.6555
2839.7188	1867.3264
2841.2126	1878.6863
2842.7065	1923.9298
2844.2004	1885.839
2845.6941	1895.0929
2847.188	1911.9061
2848.6819	1929.2294
2850.1758	1887.4072
2851.6697	1942.9569
2853.1633	1898.0076
2854.6572	1858.7762
2856.1511	1884.2384
2857.645	1894.7874
2859.1389	1888.9208
2860.6326	1894.2943
2862.1265	1891.135
2863.6204	1879.8282
2865.1143	1904.5448
2866.6082	1848.5253
2868.1021	1856.9957
2869.5957	1869.4725
2871.0896	1882.6128
2872.5835	1869.3903
2874.0774	1878.6564
2875.5713	1911.7142
2877.0649	1875.7113
2878.5588	1882.5789
2880.0527	1868.2633
2881.5466	1904.3429
2883.0405	1898.6346
2884.5342	1828.0135
2886.0281	1807.6895
2887.522	1852.9602
2889.0159	1861.632
2890.5098	1855.9833
2892.0034	1847.9054
2893.4973	1857.3965
2894.9912	1849.2994
2896.4851	1867.4965
2897.979	1909.6298
2899.4727	1808.7296
2900.9666	1860.915
2902.4604	1824.2036
2903.9543	1835.5591
2905.4482	1888.6168
2906.9419	1885.8029
2908.4358	1876.3434
2909.9297	1869.9722
2911.4236	1861.6552
2912.9175	1845.4529
2914.4111	1810.354
2915.905	1902.535
2917.3989	1852.7822
2918.8928	1822.3738
2920.3867	1831.9036
2921.8804	1854.0563
2923.3743	1907.7042
2924.8682	1871.2472
2926.3621	1832.7764
2927.856	1800.1204
2929.3499	1810.9907
2930.8435	1853.5416
2932.3374	1807.3696
2933.8313	1827.251
2935.3252	1845.955
2936.8191	1860.3108
2938.3127	1865.1116
2939.8066	1874.0315
2941.3005	1838.7153
2942.7944	1825.4321
2944.2883	1816.6669
2945.782	1803.1412
2947.2759	1838.6078
2948.7698	1825.8477
2950.2637	1812.6255
2951.7576	1834.1523
2953.2512	1852.769
2954.7451	1820.9095
2956.239	1858.6235
2957.7329	1862.6492
2959.2268	1877.166
2960.7205	1845.8807
2962.2144	1884.2682
2963.7083	1833.4766
2965.2021	1868.0654
2966.696	1799.9056
2968.1897	1820.5834
2969.6836	1851.0563
2971.1775	1876.692
2972.6714	1805.8224
2974.1653	1781.9297
2975.6589	1806.9545
2977.1528	1784.8149
2978.6467	1827.7025
2980.1406	1828.5327
2981.6345	1840.1202
2983.1282	1841.2953
2984.6221	1838.8538
2986.116	1841.8148
2987.6099	1817.9747
2989.1038	1828.0675
2990.5977	1795.2935
2992.0913	1776.371
2993.5852	1847.5604
2995.0791	1850.0397
2996.573	1835.4453
2998.0669	1779.583
2999.5605	1787.1324
3001.0544	1803.8766
3002.5483	1819.7235
3004.0422	1842.8546
3005.5361	1845.684
3007.0298	1836.0549
3008.5237	1827.1321
3010.0176	1831.7286
3011.5115	1859.512
3013.0054	1830.7771
3014.499	1749.6628
3015.9929	1830.5216
3017.4868	1805.4343
3018.9807	1791.701
3020.4746	1808.1986
3021.9683	1814.3184
3023.4622	1816.6676
3024.9561	1831.392
3026.45	1830.7346
3027.9438	1848.9004
3029.4375	1827.7665
3030.9314	1763.1415
3032.4253	1793.8719
3033.9192	1833.307
3035.4131	1855.7153
3036.9067	1756.9916
3038.4006	1804.7532
3039.8945	1820.493
3041.3884	1770.816
3042.8823	1801.9125
3044.376	1762.1221
3045.8699	1799.1102
3047.3638	1778.9967
3048.8577	1809.2593
3050.3516	1811.7694
3051.8455	1819.9528
3053.3391	1785.2225
3054.833	1784.1091
3056.3269	1782.4271
3057.8208	1794.0194
3059.3147	1768.7836
3060.8083	1790.3617
3062.3022	1809.7458
3063.7961	1757.5453
3065.29	1819.5618
3066.7839	1775.655
3068.2776	1781.6119
3069.7715	1813.7958
3071.2654	1782.4917
3072.7593	1773.3727
3074.2532	1711.4301
3075.7468	1714.9478
3077.2407	1742.4059
3078.7346	1770.3694
3080.2285	1730.8628
3081.7224	1764.0208
3083.2161	1731.2778
3084.71	1768.6743
3086.2039	1786.2643
3087.6978	1765.2618
3089.1917	1720.5302
3090.6853	1739.1416
3092.1792	1748.3424
3093.6731	1751.7008
3095.167	1826.3026
3096.6609	1749.7787
3098.1545	1749.3
3099.6484	1735.9192
3101.1423	1683.9939
3102.6362	1689.6572
3104.1301	1680.4268
3105.624	1736.3524
3107.1177	1722
3108.6116	1708.8282
3110.1055	1743.4214
3111.5994	1732.4692
3113.0933	1714.8987
3114.5869	1753.4551
3116.0808	1723.3314
3117.5747	1721.9568
3119.0686	1709.5759
3120.5625	1750.3728
3122.0562	1720.6201
3123.55	1743.9833
3125.0439	1710.2004
3126.5378	1753.839
3128.0317	1723.5402
3129.5254	1715.5253
3131.0193	1740.3186
3132.5132	1707.9669
3134.0071	1684.4218
3135.501	1674.3555
3136.9946	1680.0541
3138.4885	1694.684
3139.9824	1756.7317
3141.4763	1778.9503
3142.9702	1704.6835
3144.4639	1720.3574
3145.9578	1688.3733
3147.4517	1698.109
3148.9456	1687.5695
3150.4395	1704.3876
3151.9331	1710.7162
3153.427	1714.8257
3154.9209	1706.597
3156.4148	1669.6478
3157.9087	1674.3018
3159.4023	1699.1949
3160.8962	1703.9697
3162.3901	1742.9209
3163.884	1731.1262
3165.3779	1762.4861
3166.8718	1728.2571
3168.3655	1693.0193
3169.8594	1728.7268
3171.3533	1678.2319
3172.8472	1692.1404
3174.3411	1673.5121
3175.8347	1673.5137
3177.3286	1718.8794
3178.8225	1718.3683
3180.3164	1658.0303
3181.8103	1720.0908
3183.304	1709.9077
3184.7979	1720.2233
3186.2917	1726.4177
3187.7856	1677.7303
3189.2795	1690.4579
3190.7732	1664.9114
3192.2671	1705.2589
3193.761	1710.0409
3195.2549	1697.84
3196.7488	1718.1685
3198.2424	1724.1586
3199.7363	1686.0736
3201.2302	1658.228
3202.7241	1664.7312
3204.218	1660.1241
3205.7117	1703.3495
3207.2056	1733.2385
3208.6995	1685.0406
3210.1934	1636.9086
3211.6873	1617.4081
3213.1809	1625.2775
3214.6748	1698.6226
3216.1687	1711.7163
3217.6626	1687.5806
3219.1565	1657.924
3220.6501	1666.0796
3222.144	1682.3871
3223.6379	1649.6854
3225.1318	1644.7845
3226.6257	1638.0358
3228.1196	1692.6156
3229.6133	1610.6823
3231.1072	1627.7833
3232.6011	1628.5577
3234.095	1681.4623
3235.5889	1668.3654
3237.0825	1620.896
3238.5764	1649.8712
3240.0703	1645.8685
3241.5642	1640
3243.0581	1663.4891
3244.5518	1678.2391
3246.0457	1639.7122
3247.5396	1632.9781
3249.0334	1618.6014
3250.5273	1648.0358
3252.021	1630.4663
3253.5149	1631.068
3255.0088	1652.3323
3256.5027	1630.2356
3257.9966	1642.0125
3259.4902	1593.7897
3260.9841	1653.5092
3262.478	1655.6362
3263.9719	1628.1538
3265.4658	1604.6796
3266.9595	1556.814
3268.4534	1581.2892
3269.9473	1608.1454
3271.4412	1577.3728
3272.9351	1615.8768
3274.4287	1584.4374
3275.9226	1578.0802
3277.4165	1595.8842
3278.9104	1586.3816
3280.4043	1598.7891
3281.8979	1622.7668
3283.3918	1605.0776
3284.8857	1616.0179
3286.3796	1598.84
3287.8735	1589.8643
3289.3674	1583.2516
3290.8611	1588.9254
3292.355	1598.6738
3293.8489	1610.183
3295.3428	1544.4119
3296.8367	1600.7937
3298.3303	1620.2074
3299.8242	1607.9426
3301.3181	1572.3367
3302.812	1583.7198
3304.3059	1626.9298
3305.7996	1618.906
3307.2935	1605.5129
3308.7874	1624.0479
3310.2813	1602.7484
3311.7751	1569.5315
3313.2688	1630.0361
3314.7627	1582.9874
3316.2566	1618.3726
3317.7505	1611.7772
3319.2444	1612.11
3320.738	1622.6904
3322.2319	1630.9838
3323.7258	1591.9114
3325.2197	1591.6102
3326.7136	1603.5785
3328.2073	1578.64
3329.7012	1584.5255
3331.1951	1615.6516
3332.689	1545.2633
3334.1829	1551.6584
3335.6765	1544.9945
3337.1704	1552.1296
3338.6643	1536.5016
3340.1582	1587.5171
3341.6521	1582.095
3343.1458	1528.3289
3344.6396	1535.5535
3346.1335	1589.8157
3347.6274	1535.9523
3349.1213	1566.959
3350.6152	1540.962
3352.1089	1535.8199
3353.6028	1551
3355.0967	1511.9794
3356.5906	1572.6115
3358.0845	1565.6342
3359.5781	1548.5316
3361.072	1541.6464
3362.5659	1568.5526
3364.0598	1545.1167
3365.5537	1537.1191
3367.0474	1567.4589
3368.5413	1539.8918
3370.0352	1478.2733
3371.5291	1538.3612
3373.0229	1571.1957
3374.5166	1527.7906
3376.0105	1510.6592
3377.5044	1519.0508
3378.9983	1526.4037
3380.4922	1522.0637
3381.9858	1510.5916
3383.4797	1534.4215
3384.9736	1526.8282
3386.4675	1520.7434
3387.9614	1509.1035
3389.4551	1509.0931
3390.949	1563.5321
3392.4429	1499.6387
3393.9368	1499.7808
3395.4307	1532.8236
3396.9243	1568.7246
3398.4182	1530.9974
3399.9121	1578.3719
3401.406	1552.6497
3402.8999	1535.1271
3404.3936	1514.8824
3405.8875	1504.4962
3407.3813	1517.2159
3408.8752	1505.6978
3410.3691	1475.4635
3411.863	1496.4103
3413.3567	1508.8956
3414.8506	1538.2583
3416.3445	1519.7281
3417.8384	1449.4149
3419.3323	1489.1465
3420.8259	1524.625
3422.3198	1523.889
3423.8137	1544.6284
3425.3076	1564.3151
3426.8015	1493.5433
3428.2952	1499.1788
3429.7891	1489.2911
3431.283	1500.4657
3432.7769	1524.3524
3434.2708	1526.9797
3435.7644	1535.9224
3437.2583	1478.8445
3438.7522	1448.0409
3440.2461	1520.8252
3441.74	1496.689
3443.2336	1491.8265
3444.7275	1483.7406
3446.2214	1483.0223
3447.7153	1506.7328
3449.2092	1491.7856
3450.7029	1472.6136
3452.1968	1472.2006
3453.6907	1462.1512
3455.1846	1501.0024
3456.6785	1499.6029
3458.1721	1457.6851
3459.666	1402.0757
3461.1599	1471.3882
3462.6538	1491.1134
3464.1477	1461.1002
3465.6414	1450.368
3467.1353	1502.2496
3468.6292	1476.7625
3470.123	1491.2161
3471.6169	1513
3473.1108	1502.9136
3474.6045	1423.8287
3476.0984	1441.8505
3477.5923	1512.4775
3479.0862	1484.3488
3480.5801	1412.9211
3482.0737	1504.3895
3483.5676	1478.3917
3485.0615	1477.9633
3486.5554	1524.3864
3488.0493	1455.7476
3489.543	1467.5714
3491.0369	1525.365
3492.5308	1504.3469
3494.0247	1490.7119
3495.5186	1474.7064
3497.0122	1452.1248
3498.5061	1453.991
3500	1440.5483
