100	1448.3064
101.49385	1465.3569
102.9877	1440.582
104.48154	1466.4918
105.9754	1540.7936
107.46925	1596.4061
108.9631	1479.3965
110.45694	1481.7765
111.95079	1442.2015
113.44464	1423.1724
114.93849	1433.705
116.43233	1435.1804
117.92619	1421.3531
119.42004	1393.3468
120.91389	1399.0823
122.40773	1422.2394
123.90158	1427.8881
125.39543	1399.3978
126.88928	1412.6586
128.38313	1392.2435
129.87698	1395.9568
131.37082	1432.0342
132.86467	1415.0559
134.35852	1428.0928
135.85237	1409.4451
137.34622	1401.4945
138.84007	1403.8245
140.33392	1396.4387
141.82777	1411.1168
143.32161	1382.4283
144.81546	1412.1344
146.30931	1438.3411
147.80316	1416.7981
149.29701	1420.8785
150.79086	1418.6241
152.28471	1433.8167
153.77856	1447.8235
155.27242	1442.6063
156.76625	1410.6527
158.2601	1419.6385
159.75395	1376.6321
161.2478	1389.1549
162.74165	1431.4816
164.2355	1455.7311
165.72935	1459.8187
167.22321	1444.3713
168.71704	1438.2023
170.21089	1432.4058
171.70474	1421.0359
173.19859	1407.5101
174.69244	1445.1534
176.18629	1499.4519
177.68015	1481.1328
179.174	1441.021
180.66783	1441.3165
182.16168	1465.0942
183.65553	1536.9141
185.14938	1508.6396
186.64323	1517.2434
188.13708	1573.6952
189.63094	1577.9818
191.12479	1491.9055
192.61862	1468.6825
194.11247	1486.1644
195.60632	1517.1324
197.10017	1530.4231
198.59402	1493.4619
200.08788	1502.7239
201.58173	1477.2347
203.07558	1473.6665
204.56943	1507.6293
206.06326	1553.2893
207.55711	1521.2245
209.05096	1492.1428
210.54482	1471.2343
212.03867	1473.0874
213.53252	1482.604
215.02637	1450.5068
216.52022	1466.1434
218.01405	1446.1526
219.5079	1471.6178
221.00175	1501.6901
222.49561	1490.2156
223.98946	1514.9242
225.48331	1504.1951
226.97716	1491.851
228.47101	1471.6941
229.96484	1468.6995
231.45869	1514
232.95255	1514
234.4464	1497.2347
235.94025	1484.3604
237.4341	1503.5494
238.92795	1535.5199
240.4218	1501.2444
241.91563	1478.1379
243.40948	1465.2018
244.90334	1499.6462
246.39719	1526.2233
247.89104	1498.9581
249.38489	1482.4407
250.87874	1546.245
252.37259	1493.4401
253.86644	1483.0133
255.36028	1505.8152
256.85413	1477.2462
258.34799	1517.7539
259.84183	1521.7598
261.33566	1500.3043
262.82953	1504.8224
264.32336	1533.7185
265.81723	1532.8591
267.31107	1493.9675
268.80493	1554.6195
270.29877	1550.928
271.79263	1496.8867
273.28647	1456.8009
274.7803	1494.5919
276.27417	1483.8242
277.76801	1521.1769
279.26187	1484.3566
280.75571	1444.0139
282.24957	1466.5549
283.74341	1473.9703
285.23724	1441.6351
286.73111	1473.2277
288.22495	1471.9966
289.71881	1451.2703
291.21265	1455.0247
292.70651	1460.8328
294.20035	1466.6421
295.69421	1417.8103
297.18805	1391.7904
298.68188	1408.5848
300.17575	1440.1199
301.66959	1434.3059
303.16345	1448.1495
304.65729	1407.5999
306.15115	1410.4387
307.64499	1417.3413
309.13885	1341.4039
310.63269	1367.1464
312.12653	1310.3552
313.62039	1331.61
315.11423	1333.5073
316.60809	1298.462
318.10193	1286.4943
319.59579	1290.6503
321.08963	1297.8605
322.58347	1288.1055
324.07733	1267.6084
325.57117	1262.1799
327.06503	1295.5782
328.55887	1309.7388
330.05273	1311.7581
331.54657	1267.6735
333.04044	1256.098
334.53427	1257.4984
336.02811	1189.8383
337.52197	1215.6855
339.01581	1199.7776
340.50967	1178.5735
342.00351	1197.4988
343.49738	1224.9695
344.99121	1191.0951
346.48505	1191.9297
347.97891	1165.2438
349.47275	1154.6027
350.96661	1133.4552
352.46045	1121.2037
353.95432	1151.7634
355.44815	1109.9938
356.94202	1117.8595
358.43585	1111.2181
359.92969	1105
361.42355	1089.9949
362.91739	1058.7943
364.41125	1106.4584
365.90509	1101.0823
367.39896	1090.2042
368.89279	1103.5957
370.38666	1110.5209
371.88049	1081.1561
373.37433	1106.2667
374.86819	1115.1273
376.36203	1126.7507
377.8559	1133.95
379.34973	1124.2979
380.8436	1105.6967
382.33743	1134.9365
383.83127	1046.1088
385.32513	1076.3704
386.81897	1101.575
388.31284	1101.8798
389.80667	1098.5757
391.30054	1101.1832
392.79437	1106.2161
394.28824	1096.3756
395.78207	1101.3159
397.27591	1101.6333
398.76978	1091.1353
400.26361	1093.6028
401.75748	1075.9708
403.25131	1076.2378
404.74518	1067.6271
406.23901	1094.2145
407.73288	1133.1484
409.22672	1109.3396
410.72055	1048.7578
412.21442	1093.8835
413.70825	1083.0918
415.20212	1094.3802
416.69595	1127.6647
418.18982	1136.6312
419.68365	1129.0601
421.17749	1100.5858
422.67136	1082.1289
424.16519	1048.4882
425.65906	1040.6837
427.15289	1071.1887
428.64676	1069.5731
430.14059	1099.085
431.63446	1092.0405
433.1283	1080.5494
434.62213	1102.4391
436.116	1126.2485
437.60983	1084.923
439.1037	1092.5101
440.59753	1108.775
442.0914	1104.1511
443.58524	1114.2343
445.07907	1099.9347
446.57294	1041.3785
448.06677	1079.2969
449.56064	1111.4063
451.05447	1111.4231
452.54834	1117.1207
454.04218	1120.5238
455.53604	1110.6016
457.02988	1094.5529
458.52371	1078.5012
460.01758	1123.0109
461.51141	1121.0823
463.00528	1122.8938
464.49911	1130.6334
465.99298	1117.0463
467.48682	1122.9657
468.98068	1089.3638
470.47452	1093.3143
471.96835	1119.3619
473.46222	1123.9308
474.95605	1094.8752
476.44992	1074.6678
477.94376	1082.2872
479.43762	1069.936
480.93146	1118.3285
482.42529	1149.6105
483.91916	1143.9574
485.41299	1127.0867
486.90686	1085.2167
488.4007	1117.4622
489.89456	1088.5942
491.3884	1091.621
492.88226	1112.3867
494.3761	1103.6787
495.86993	1048.1935
497.3638	1049.8903
498.85764	1067.4813
500.3515	1063.634
501.84534	1041.7473
503.3392	1039.4117
504.83304	1059.9854
506.3269	1021.7902
507.82074	1017.5433
509.31458	1062.9869
510.80844	1017.4648
512.30231	1001.9617
513.79614	1020.4939
515.28998	992.70959
516.78381	1050.5917
518.27771	1072.979
519.77155	1035.9348
521.26538	994.46674
522.75922	997.71881
524.25305	1011.7692
525.74695	949.3714
527.24078	935.737
528.73462	920.50397
530.22845	930.8092
531.72229	939.52875
533.21619	947.8728
534.71002	972.2323
536.20386	1013.1513
537.69769	964.57898
539.19159	987.82361
540.68542	987.23151
542.17926	957.07495
543.6731	944.29401
545.16693	975.04901
546.66083	982.75378
548.15466	956.30646
549.6485	953.7475
551.14233	951.59247
552.63623	980.08942
554.13007	986.24359
555.6239	931.86481
557.11774	990.89587
558.61157	943.00848
560.10547	906.10114
561.5993	935.90265
563.09314	926.29224
564.58698	901.52844
566.08087	955.76807
567.57471	932.08545
569.06854	944.07062
570.56238	941.68958
572.05621	972.18805
573.55011	998.15399
575.04395	978.05841
576.53778	931.04846
578.03162	990.95789
579.52551	915.5343
581.01935	917.29523
582.51318	941.28644
584.00702	953.28619
585.50085	951.85828
586.99475	956.01361
588.48859	968.01575
589.98242	975.7384
591.47626	975.56396
592.97009	965.20221
594.46399	942.79938
595.95782	932.06018
597.45166	948.11005
598.9455	915.40631
600.43939	950.62659
601.93323	959.64069
603.42706	955.12524
604.9209	920.6084
606.41473	898.93951
607.90863	922.69507
609.40247	862.33307
610.8963	906.19427
612.39014	924.68817
613.88403	898.66602
615.37787	889.26489
616.8717	897.40796
618.36554	893.55835
619.85938	909.19263
621.35327	912.63672
622.84711	903.75592
624.34094	884.57758
625.83478	906.55658
627.32867	907.79089
628.82251	867.44354
630.31635	928.25159
631.81018	942.04358
633.30402	928.55682
634.79791	924.33533
636.29175	947.74835
637.78558	956.1015
639.27942	919.77106
640.77332	877.70483
642.26715	919.99176
643.76099	927.74066
645.25482	909.23572
646.74866	914.09375
648.24255	934.38885
649.73639	950.96576
651.23022	955.27271
652.72406	941.51276
654.21796	959.65942
655.71179	925.11084
657.20563	914.85394
658.69946	881.70801
660.1933	900.97662
661.68719	983.68494
663.18103	904.17743
664.67487	939.64789
666.1687	932.30493
667.66254	923.25854
669.15643	908.11816
670.65027	913.0141
672.1441	933.09851
673.63794	929.23846
675.13184	936.91412
676.62567	916.96661
678.11951	891.1344
679.61334	892.0625
681.10718	905.53381
682.60107	915.01318
684.09491	913.31128
685.58875	898.70801
687.08258	895.23895
688.57648	932.15411
690.07031	965.98462
691.56415	965.49756
693.05798	942.6413
694.55182	926.39966
696.04572	926.44238
697.53955	907.1908
699.03339	966.24347
700.52722	946.83801
702.02112	924.28925
703.51495	929.30145
705.00879	947.34674
706.50262	947.13409
707.99646	923.3172
709.49036	943.3374
710.98419	974.26813
712.47803	960.08258
713.97186	953.74463
715.46576	936.48749
716.95959	932.35602
718.45343	973.70361
719.94727	984.68231
721.4411	980.32953
722.935	948.57495
724.42883	938.29254
725.92267	973.20142
727.4165	1013.9244
728.91034	1022.8726
730.40424	1003.7347
731.89807	981.39417
733.39191	966.57513
734.88574	982.16296
736.37964	1003.9625
737.87347	1011.9497
739.36731	1001.8449
740.86115	1001.2692
742.35498	1035.1252
743.84888	1023.2026
745.34271	982.12836
746.83655	1010.6176
748.33038	993.56824
749.82428	993.35052
751.31812	1018.0251
752.81195	1015.8081
754.30579	963.73242
755.79962	962.20807
757.29352	983.18524
758.78735	982.21106
760.28119	961.37299
761.77502	947.96796
763.26892	957.10962
764.76276	973.96582
766.25659	977.54669
767.75043	1019.2648
769.24426	952.75
770.73816	955.41663
772.23199	933.49536
773.72583	950.84741
775.21967	949.41931
776.71356	909.07141
778.2074	933.85626
779.70123	932.8205
781.19507	924.92389
782.6889	929.42395
784.1828	916.66107
785.67664	929.63788
787.17047	941.48584
788.66431	940.54718
790.15814	954.53406
791.65204	916.61023
793.14587	929.78876
794.63971	928.60901
796.13354	936.78296
797.62744	969.28424
799.12128	965.54388
800.61511	942.56616
802.10895	972.78003
803.60278	990.16962
805.09668	954.9801
806.59052	956.32135
808.08435	959.12854
809.57819	967.07184
811.07208	985.14917
812.56592	992.64886
814.05975	984.29871
815.55359	1005.4161
817.04742	1032.7229
818.54132	1039.9768
820.03516	1013.8824
821.52899	1015.1535
823.02283	1027.7086
824.51672	1022.4817
826.01056	1011.1212
827.50439	1023.157
828.99823	1003.6327
830.49207	1016.8654
831.98596	1070.4358
833.4798	1059.5674
834.97363	1057.5776
836.46747	1051.2852
837.96136	1052.1465
839.4552	1091.2422
840.94904	1112.4824
842.44287	1073.6152
843.93671	1083.4348
845.4306	1125.674
846.92444	1084.2153
848.41827	1058.7308
849.91211	1075.7479
851.40601	1096.7617
852.89984	1099.3979
854.39368	1065.3772
855.88751	1025.5657
857.38135	1037.9009
858.87524	1058.8202
860.36908	1071.9795
861.86292	1044.1068
863.35675	1012.2119
864.85059	1026.6772
866.34448	1052.4025
867.83832	1017.9484
869.33215	1016.1763
870.82599	999.24176
872.31989	990.89398
873.81372	975.30072
875.30756	968.6593
876.80139	953.72742
878.29523	909.37549
879.78912	892.03119
881.28296	951.84619
882.77679	926.11292
884.27063	948.77527
885.76453	912.51733
887.25836	909.37323
888.7522	908.43536
890.24603	916.28784
891.73987	949.56158
893.23376	874.54694
894.7276	878.9895
896.22144	942.83685
897.71527	912.1825
899.20917	881.69769
900.703	890.30615
902.19684	901.89191
903.69067	901.33429
905.18451	912.68823
906.67841	927.5199
908.17224	916.09991
909.66608	940.1311
911.15991	939.86432
912.65381	944.39392
914.14764	943.60779
915.64148	977.06171
917.13531	1014.7916
918.62915	1002.6187
920.12305	1000.3031
921.61688	1034.7708
923.11072	983.96454
924.60455	1002.3279
926.09839	976.64032
927.59229	1008.9464
929.08612	1014.0632
930.57996	1001.4164
932.07379	1018.9054
933.56769	996.87964
935.06152	1024.6553
936.55536	966.62982
938.04919	964.67596
939.54303	931.36578
941.03693	939.00153
942.53076	962.9317
944.0246	949.67938
945.51843	930.00208
947.01233	948.54614
948.50616	885.67572
950	873.15924
951.49384	832.34222
952.98767	818.43823
954.48157	869.216
955.9754	870.54779
957.46924	830.65637
958.96307	807.79773
960.45697	802.85223
961.95081	778.84998
963.44464	779.85681
964.93848	815.67853
966.43231	751.74707
967.92621	766.18298
969.42004	781.68262
970.91388	807.17468
972.40771	806.18756
973.90161	770.27551
975.39545	752.46899
976.88928	744.44055
978.38312	725.62256
979.87695	767.83228
981.37085	811.62262
982.86469	765.1626
984.35852	760.16058
985.85236	765.45508
987.34619	746.54688
988.84009	726.19788
990.33392	731.3371
991.82776	761.46692
993.32159	692.28973
994.81549	711.70819
996.30933	707.63544
997.80316	700.44269
999.297	682.54633
1000.7908	710.08173
1002.2847	725.7276
1003.7786	679.11298
1005.2724	663.5246
1006.7662	705.37494
1008.2601	690.07672
1009.754	671.17145
1011.2478	696.92419
1012.7416	711.68286
1014.2355	709.00342
1015.7294	691.46307
1017.2232	685.24976
1018.717	701.16949
1020.2109	708.25653
1021.7048	692.06232
1023.1986	708.71454
1024.6924	685.27332
1026.1863	726.20874
1027.6802	728.10004
1029.174	715.68103
1030.6678	712.61938
1032.1617	698.35931
1033.6555	695.81293
1035.1494	733.42731
1036.6432	727.4762
1038.1371	743.24341
1039.631	748.66779
1041.1248	708.24896
1042.6187	736.41174
1044.1124	769.0567
1045.6063	755.80115
1047.1002	740.73706
1048.594	736.08215
1050.0879	719.61615
1051.5817	706.89508
1053.0756	670.99341
1054.5695	722.61847
1056.0632	721.20178
1057.5571	711.33929
1059.051	728.20166
1060.5448	706.97894
1062.0387	681.67401
1063.5325	702.47388
1065.0264	727.9126
1066.5203	699.92834
1068.014	682.79907
1069.5079	695.91211
1071.0017	742.1875
1072.4956	687.32214
1073.9895	700.82843
1075.4833	743.43097
1076.9772	728.44653
1078.4709	712.53809
1079.9648	708.11908
1081.4587	683.117
1082.9525	662.97247
1084.4464	678.49561
1085.9402	712.21375
1087.4341	696.7597
1088.928	715.01874
1090.4218	700.20276
1091.9156	683.3844
1093.4095	702.90308
1094.9033	714.9671
1096.3972	703.79285
1097.891	690.46509
1099.3849	681.70251
1100.8788	688.62518
1102.3726	716.7713
1103.8665	729.52155
1105.3602	684.41077
1106.8541	686.66486
1108.348	668.73218
1109.8418	700.93231
1111.3357	684.12476
1112.8295	643.2619
1114.3234	661.77899
1115.8173	701.51648
1117.311	698.05969
1118.8049	671.18793
1120.2988	640.13007
1121.7926	640.90869
1123.2865	679.60809
1124.7803	685.06287
1126.2742	674.92712
1127.7681	648.65668
1129.2618	645.77496
1130.7557	675.37396
1132.2495	692.25262
1133.7434	681.38812
1135.2373	685.54578
1136.7311	657.66864
1138.225	691.49738
1139.7188	677.25275
1141.2126	685.26398
1142.7065	706.31061
1144.2003	718.33899
1145.6942	723.67664
1147.188	704.82623
1148.6819	673.50592
1150.1758	675.3009
1151.6696	704.7926
1153.1635	708.57056
1154.6573	712.68909
1156.1511	703.52759
1157.645	707.3175
1159.1388	682.23285
1160.6327	703.60364
1162.1266	719.69055
1163.6204	710.28656
1165.1143	690.11121
1166.608	684.24158
1168.1019	696.71161
1169.5958	692.67822
1171.0896	661.94464
1172.5835	676.67059
1174.0773	692.2937
1175.5712	738.58533
1177.0651	736.24506
1178.5588	701.84326
1180.0527	685.83038
1181.5466	687.87177
1183.0404	693.83533
1184.5343	697.78448
1186.0281	684.65613
1187.522	664.13623
1189.0159	701.45514
1190.5096	700.30737
1192.0035	653.39532
1193.4973	695.01416
1194.9912	691.4978
1196.4851	670.37555
1197.9789	672.10687
1199.4728	666.44983
1200.9666	680.74915
1202.4604	679.30908
1203.9543	647.93542
1205.4481	637.58118
1206.942	645.7088
1208.4359	686.7738
1209.9297	658.35553
1211.4236	664.80847
1212.9174	639.91943
1214.4113	656.65692
1215.9052	630.59521
1217.3989	638.61682
1218.8928	655.06378
1220.3866	660
1221.8805	653.9046
1223.3744	645.64038
1224.8682	633.37115
1226.3621	614.78009
1227.8558	651.77625
1229.3497	624.96667
1230.8436	640.69147
1232.3374	618.35052
1233.8313	625.14252
1235.3251	653.48077
1236.819	617.6543
1238.3129	600.03674
1239.8066	620.11603
1241.3005	622.69159
1242.7944	621.63617
1244.2882	639.39178
1245.7821	628.19073
1247.2759	628.87128
1248.7698	616.5321
1250.2637	652.01758
1251.7574	652.94489
1253.2513	662.59454
1254.7451	660.00128
1256.239	631.35754
1257.7329	633.43506
1259.2267	650.47723
1260.7206	656.4693
1262.2144	650.17609
1263.7083	654.64276
1265.2021	663.24457
1266.6959	639.77557
1268.1898	641.14697
1269.6837	654.31915
1271.1775	668.97668
1272.6714	667.1178
1274.1652	666.12933
1275.6591	653.19336
1277.153	663.87585
1278.6467	675.60388
1280.1406	696.12646
1281.6344	665.80432
1283.1283	648.67004
1284.6222	673.47144
1286.116	667.86993
1287.6099	663.92773
1289.1036	665.29413
1290.5975	633.25714
1292.0914	669.53082
1293.5852	682.57343
1295.0791	655.9588
1296.5729	679.66681
1298.0668	672.75305
1299.5607	656.4411
1301.0544	663.60291
1302.5483	694.07281
1304.0422	682.26892
1305.536	642.13513
1307.0299	634.80188
1308.5237	651.50873
1310.0176	653.70435
1311.5115	613.23291
1313.0052	636.44763
1314.4991	651.33508
1315.9929	692.43323
1317.4868	639.12451
1318.9807	582.12048
1320.4745	618.11652
1321.9684	650.28473
1323.4622	664.38092
1324.9561	657.099
1326.45	640.84979
1327.9437	636.55768
1329.4376	635.67761
1330.9315	622.57391
1332.4253	610.21997
1333.9192	602.18866
1335.413	600.87952
1336.9069	587.40485
1338.4008	608.9682
1339.8945	605.25928
1341.3884	582.3299
1342.8822	630.0177
1344.3761	599.41449
1345.87	626.74475
1347.3638	629.81598
1348.8577	602.06659
1350.3514	596.46808
1351.8453	617.65942
1353.3392	606.60889
1354.833	581.37067
1356.3269	626.75604
1357.8207	631.29669
1359.3146	639.82819
1360.8085	630.87903
1362.3022	615.97284
1363.7961	613.15546
1365.29	618.3313
1366.7838	617.34369
1368.2777	638.52405
1369.7715	637.20374
1371.2654	630.75256
1372.7593	623.09998
1374.2531	600.94989
1375.7469	608.59491
1377.2407	633.76105
1378.7346	633.77197
1380.2285	636.11298
1381.7223	640.41547
1383.2162	655.80682
1384.71	633.57843
1386.2039	646.2605
1387.6978	664.67847
1389.1915	612.8717
1390.6854	610
1392.1793	635.82922
1393.6731	659.6366
1395.167	659.95905
1396.6608	659.98944
1398.1547	693.7641
1399.6486	693.5401
1401.1423	671.05981
1402.6362	651.53143
1404.13	628.02637
1405.6239	624.90002
1407.1178	630.11066
1408.6116	624.14258
1410.1055	646.14105
1411.5992	629.39807
1413.0931	659.03467
1414.587	677.92737
1416.0808	623.34857
1417.5747	604.89789
1419.0685	623.84076
1420.5624	645.15723
1422.0563	628.93427
1423.55	662.05963
1425.0439	655.98932
1426.5378	659.24176
1428.0316	634.48767
1429.5255	614.95947
1431.0193	628.25659
1432.5132	620.90021
1434.0071	623.16119
1435.5009	617.00958
1436.9948	632.39734
1438.4885	629.44812
1439.9824	602.99994
1441.4763	602.39795
1442.9701	589.11328
1444.464	654.86115
1445.9578	642.08905
1447.4517	603.06757
1448.9456	628.30713
1450.4393	621.51447
1451.9332	601.56836
1453.4271	587.99054
1454.9209	593.39752
1456.4148	594.08569
1457.9086	614.38367
1459.4025	631.34705
1460.8964	604.9754
1462.3901	581.2973
1463.884	587.33429
1465.3778	596.14941
1466.8717	563.11108
1468.3656	603.83124
1469.8594	596.02112
1471.3533	587.84692
1472.847	603.94318
1474.3409	575.37408
1475.8348	591.22589
1477.3286	552.61426
1478.8225	570.36188
1480.3163	588.23993
1481.8102	589.84564
1483.3041	599.0705
1484.7979	587.75592
1486.2917	588.98944
1487.7856	609.24017
1489.2794	611.25
1490.7733	599.79907
1492.2671	601.33868
1493.761	613.23291
1495.2549	619.96216
1496.7487	603.40454
1498.2426	579.64252
1499.7363	591.81464
1501.2302	583.88239
1502.7241	574.43976
1504.2179	635.22144
1505.7118	587.43506
1507.2056	611.65686
1508.6995	583.15436
1510.1934	576.55719
1511.6871	592.34161
1513.181	589.81079
1514.6749	610.6684
1516.1687	625.88428
1517.6626	603.1803
1519.1564	602.86267
1520.6503	617.04681
1522.1442	611.14209
1523.6379	612.96124
1525.1318	637.17908
1526.6256	637.2525
1528.1195	622.50214
1529.6134	630.06982
1531.1072	610.69165
1532.6011	611.82465
1534.0948	600.56818
1535.5887	641.85315
1537.0826	637.5755
1538.5764	607.6701
1540.0703	590.08557
1541.5641	628.47266
1543.058	625.21332
1544.5519	616.82983
1546.0457	631.62598
1547.5396	594.23077
1549.0334	595.47955
1550.5272	630.28906
1552.0211	602.51617
1553.5149	615.3092
1555.0088	614.3725
1556.5027	617.35773
1557.9965	621.64001
1559.4904	604.37811
1560.9841	620.56213
1562.478	630.97717
1563.9719	600.49005
1565.4657	597.73035
1566.9596	603.664
1568.4534	596.1123
1569.9473	584.46521
1571.4412	592.24298
1572.9349	586.82703
1574.4288	618.80804
1575.9227	550.67322
1577.4165	621.01471
1578.9104	599.60626
1580.4042	611.13995
1581.8981	540.66705
1583.392	575.72083
1584.8857	573.46423
1586.3796	586.96869
1587.8734	568.88745
1589.3673	577.06006
1590.8612	577.69153
1592.355	562.28577
1593.8489	564.02393
1595.3427	569.00537
1596.8365	564.91913
1598.3304	558.38629
1599.8242	559.41772
1601.3181	565.75586
1602.812	560.43707
1604.3058	556.24402
1605.7997	569.78149
1607.2935	566.36255
1608.7874	564.49792
1610.2813	581.54279
1611.775	568.5257
1613.2689	599.96179
1614.7627	584.26202
1616.2566	568.36725
1617.7505	546.99866
1619.2443	575.19537
1620.7382	584.112
1622.2319	567.05481
1623.7258	597.37439
1625.2197	613.6062
1626.7135	522.34631
1628.2074	577.66937
1629.7012	549.6333
1631.1951	563.59192
1632.689	541.90912
1634.1827	545.87488
1635.6766	569.43066
1637.1705	589.24414
1638.6643	565.13281
1640.1582	589.07642
1641.652	571.27893
1643.1459	577.25653
1644.6398	563.13098
1646.1335	568.51801
1647.6274	567.66364
1649.1212	565.06665
1650.6151	561.92834
1652.109	577.53912
1653.6028	591.10614
1655.0967	585.62518
1656.5905	570.66748
1658.0844	561.89398
1659.5782	580.40662
1661.072	580.43695
1662.5659	567.38885
1664.0598	562.95898
1665.5536	565.33344
1667.0475	587.81201
1668.5413	575.84155
1670.0352	581.69781
1671.5291	559.0661
1673.0228	540.32013
1674.5167	587.71649
1676.0105	587.74567
1677.5044	543.69531
1678.9983	565.70673
1680.4921	585.41888
1681.986	575.04553
1683.4797	586.37097
1684.9736	548.37897
1686.4675	567.13867
1687.9613	560.68555
1689.4552	513.53058
1690.949	555.84735
1692.4429	543.80261
1693.9368	557.73193
1695.4305	564.61963
1696.9244	536.11621
1698.4183	546.84302
1699.9121	534.90973
1701.406	534.80737
1702.8998	534.54858
1704.3937	550.39923
1705.8876	537.75677
1707.3813	553.38434
1708.8752	546.815
1710.369	524.55481
1711.8629	523.31604
1713.3568	518.00433
1714.8506	538.37518
1716.3445	536.25031
1717.8383	531.96057
1719.3322	533.62964
1720.826	540.98962
1722.3198	536.84283
1723.8137	525.23535
1725.3076	539.57172
1726.8014	549.62292
1728.2953	538.37122
1729.7891	512.64618
1731.283	531.49493
1732.7769	531.01831
1734.2706	521.95398
1735.7645	540.9444
1737.2583	539.3324
1738.7522	531.61462
1740.2461	522.56879
1741.7399	528.16791
1743.2338	535.15771
1744.7275	532.51855
1746.2214	525.44995
1747.7153	533.02948
1749.2091	543.75067
1750.703	538.04529
1752.1968	530.78839
1753.6907	539.74719
1755.1846	547.89746
1756.6783	530.51654
1758.1722	543.20416
1759.6661	549.61475
1761.1599	535.63806
1762.6538	529.59937
1764.1476	558.55334
1765.6415	549.73993
1767.1354	558.51416
1768.6292	542.80066
1770.123	558.22943
1771.6168	534.40143
1773.1107	560.2807
1774.6046	513.44775
1776.0984	518.67059
1777.5923	538.83417
1779.0861	522.45587
1780.58	530.07111
1782.0739	524.95587
1783.5676	522.13501
1785.0615	540.59351
1786.5554	543.13654
1788.0492	535.89044
1789.5431	558.86847
1791.0369	533.63837
1792.5308	560.91571
1794.0247	550.50043
1795.5184	556.05682
1797.0123	568.76337
1798.5061	531.05109
1800	516.23175
1801.4939	531.35724
1802.9877	527.87683
1804.4816	544.52136
1805.9753	555.34204
1807.4692	535.14746
1808.9631	531.30475
1810.4569	522.16858
1811.9508	535.37781
1813.4446	536.60327
1814.9385	527.06519
1816.4324	511.91486
1817.9261	515.40137
1819.42	510.0408
1820.9139	499.21619
1822.4077	510.69171
1823.9016	503.53806
1825.3954	488.22531
1826.8893	496.76483
1828.3832	515.30988
1829.877	515.19574
1831.3708	512.82709
1832.8646	494.78894
1834.3585	495.0152
1835.8524	526.72168
1837.3462	522.9184
1838.8401	509.69717
1840.3339	505.42264
1841.8278	507.59299
1843.3217	488.64371
1844.8154	495.22876
1846.3093	495.8287
1847.8032	499.91098
1849.297	508.16547
1850.7909	498.54343
1852.2847	498.51523
1853.7786	504.81042
1855.2725	519.88135
1856.7662	515.37451
1858.2601	511.20071
1859.7539	494.57831
1861.2478	494.39282
1862.7417	523.54419
1864.2355	508.12894
1865.7294	490.44571
1867.2231	498.05426
1868.717	506.56369
1870.2109	500.39267
1871.7047	504.52975
1873.1986	525.49963
1874.6924	513.32684
1876.1863	487.2442
1877.6802	498.87106
1879.174	502.80359
1880.6678	495.28561
1882.1617	504.79523
1883.6555	513.76978
1885.1494	534.75348
1886.6432	535.30676
1888.1371	529.69519
1889.631	537.38928
1891.1248	534.12817
1892.6187	519.2168
1894.1124	519.2168
1895.6063	519.2168
1897.1002	565.75342
1898.594	519.25616
1900.0879	517.13214
1901.5817	536.62146
1903.0756	526.93158
1904.5695	516.53162
1906.0632	523.24542
1907.5571	535.58704
1909.051	548.18658
1910.5448	532
1912.0387	534.27399
1913.5325	535.34302
1915.0264	534.80554
1916.5203	540.61853
1918.014	526.58514
1919.5079	510.3873
1921.0017	532.51917
1922.4956	538.08533
1923.9895	516.11963
1925.4833	528.85321
1926.9772	538.23468
1928.4709	532.80786
1929.9648	513.37268
1931.4587	478.1225
1932.9525	473.94086
1934.4464	479.61673
1935.9402	475.62601
1937.4341	490.8486
1938.928	503.21359
1940.4218	506.44519
1941.9156	492.68118
1943.4095	484.64395
1944.9033	491.12173
1946.3972	497.99698
1947.891	513.38934
1949.3849	505.01685
1950.8788	492.0574
1952.3726	483.5647
1953.8665	461.81113
1955.3602	477.48257
1956.8541	490.36914
1958.348	472.14249
1959.8418	481.88544
1961.3357	479.86298
1962.8295	464.57523
1964.3234	490.25082
1965.8173	491.59784
1967.311	448.46072
1968.8049	466.49408
1970.2988	491.13705
1971.7926	489.6741
1973.2865	492.74173
1974.7803	473.82574
1976.2742	463.90378
1977.7681	477.20425
1979.2618	484.40118
1980.7557	474.87875
1982.2495	457.88446
1983.7434	447.23685
1985.2373	461.56219
1986.7311	449.64859
1988.225	481.3761
1989.7188	467.95044
1991.2126	469.66559
1992.7065	456.26852
1994.2003	480.2886
1995.6942	458.74725
1997.188	456.27591
1998.6819	484.47263
2000.1758	502.68677
2001.6696	511.29858
2003.1635	506.07974
2004.6573	485.25296
2006.1511	467.30466
2007.645	485.76227
2009.1388	486.90659
2010.6327	481.84213
2012.1266	508.87347
2013.6204	514
2015.1143	484.37527
2016.608	478.22815
2018.1019	488.79877
2019.5958	495.483
2021.0896	454.23956
2022.5835	493.40283
2024.0773	479.73431
2025.5712	508.14499
2027.0651	501.10907
2028.5588	491.01794
2030.0527	498
2031.5466	497.36844
2033.0404	480.80545
2034.5343	513.09277
2036.0281	472.53275
2037.522	490.48907
2039.0159	496.36966
2040.5096	506.86932
2042.0035	500.68802
2043.4973	478.76541
2044.9912	520.44623
2046.4851	501.21323
2047.9789	475.86624
2049.4727	495.58548
2050.9666	490.23929
2052.4604	494.24423
2053.9543	509.26004
2055.4482	500.98187
2056.9419	494.94882
2058.4358	497.87949
2059.9297	500.05823
2061.4236	520.55109
2062.9175	527.75934
2064.4111	521.29919
2065.905	510.10403
2067.3989	497.60471
2068.8928	479.97263
2070.3867	486.26657
2071.8804	506.89319
2073.3743	485.28207
2074.8682	480.94946
2076.3621	477.01041
2077.856	479.00684
2079.3499	473.96552
2080.8435	468.31052
2082.3374	479.84198
2083.8313	467.505
2085.3252	471.56082
2086.8191	494.62589
2088.3127	467.23392
2089.8066	461.74457
2091.3005	497.17517
2092.7944	478.19757
2094.2883	442.87045
2095.782	471.63507
2097.2759	457.82913
2098.7698	446.66776
2100.2637	484.2832
2101.7576	441.80164
2103.2512	443.16888
2104.7451	464.80789
2106.239	456.80957
2107.7329	425.0376
2109.2268	467.6167
2110.7205	448.80194
2112.2144	452.8797
2113.7083	449.60992
2115.2021	454.20471
2116.696	434.01978
2118.1897	444.95798
2119.6836	444.17133
2121.1775	460.965
2122.6714	442.52457
2124.1653	462.00372
2125.6589	440.73325
2127.1528	432.16846
2128.6467	441.62469
2130.1406	437.56723
2131.6345	444.26514
2133.1282	457.34958
2134.6221	444.40479
2136.116	447.62985
2137.6099	434.66293
2139.1038	430.23596
2140.5977	452.9205
2142.0913	448.77075
2143.5852	459.74557
2145.0791	443.95648
2146.573	441.23914
2148.0669	437.79694
2149.5605	437
2151.0544	464.08908
2152.5483	480.99878
2154.0422	453.05838
2155.5361	467.94589
2157.0298	475.37222
2158.5237	454.48575
2160.0176	458.69174
2161.5115	427.12054
2163.0054	435.3143
2164.499	441.37262
2165.9929	460.89255
2167.4868	461.69159
2168.9807	460.50284
2170.4746	473.35529
2171.9683	462.3811
2173.4622	440.70718
2174.9561	442.48798
2176.45	465.9296
2177.9438	473.5853
2179.4375	484.43155
2180.9314	499.4368
2182.4253	469.68069
2183.9192	481.04541
2185.4131	486.9574
2186.9067	468.31488
2188.4006	493.36487
2189.8945	504.77667
2191.3884	500.93478
2192.8823	477.91302
2194.376	514.7608
2195.8699	446.16876
2197.3638	446.71902
2198.8577	485.88339
2200.3516	461.54968
2201.8455	477.14407
2203.3391	477.68307
2204.833	465.08078
2206.3269	456.41449
2207.8208	470.81003
2209.3147	486.62552
2210.8083	490.98416
2212.3022	477.51465
2213.7961	453.97083
2215.29	449.84528
2216.7839	474.96707
2218.2776	481.50137
2219.7715	479.92316
2221.2654	494.63605
2222.7593	465.09512
2224.2532	469.0466
2225.7468	500.81586
2227.2407	480.56735
2228.7346	495.27982
2230.2285	468.19043
2231.7224	472.25787
2233.2161	459.48184
2234.71	448.50894
2236.2039	470.81686
2237.6978	468.82922
2239.1917	461.32419
2240.6853	437.21478
2242.1792	495.39804
2243.6731	477.06863
2245.167	461.23395
2246.6609	473.6348
2248.1545	471.25977
2249.6484	461.224
2251.1423	452.61649
2252.6362	434.37045
2254.1301	433.19443
2255.624	434.28049
2257.1177	444
2258.6116	432.98233
2260.1055	431.85345
2261.5994	409.63171
2263.0933	419.83136
2264.5869	440.77661
2266.0808	423.82809
2267.5747	449.6134
2269.0686	397.7345
2270.5625	469.34976
2272.0562	430.18817
2273.55	428.80356
2275.0439	397.20346
2276.5378	411.66965
2278.0317	425.28644
2279.5254	434.69897
2281.0193	435.39587
2282.5132	431.64072
2284.0071	422.89178
2285.501	447.24783
2286.9946	469.91287
2288.4885	449.44537
2289.9824	440.49387
2291.4763	422.26257
2292.9702	421.15277
2294.4639	420.04657
2295.9578	437.50409
2297.4517	416.05548
2298.9456	410.17465
2300.4395	419.93018
2301.9331	415.52435
2303.427	408.0318
2304.9209	435.98175
2306.4148	436.5162
2307.9087	448.53778
2309.4023	414.32547
2310.8962	431.05252
2312.3901	419.56604
2313.884	419.66312
2315.3779	402.5405
2316.8718	418.07065
2318.3655	428.73318
2319.8594	414.64865
2321.3533	409.37946
2322.8472	408.77725
2324.3411	415.65024
2325.8347	416.11426
2327.3286	426.33212
2328.8225	440.91696
2330.3164	439.14737
2331.8103	440.53879
2333.304	429.91547
2334.7979	430.78778
2336.2917	399.16049
2337.7856	411.19547
2339.2795	423.61771
2340.7732	432.6394
2342.2671	446.97626
2343.761	441.84012
2345.2549	443.29187
2346.7488	430.04968
2348.2424	421.7222
2349.7363	457.04602
2351.2302	451.11069
2352.7241	414.91385
2354.218	454.80829
2355.7117	459.85287
2357.2056	443.9288
2358.6995	422.64368
2360.1934	457.17441
2361.6873	421.0528
2363.1809	454.69507
2364.6748	453.27115
2366.1687	444.79135
2367.6626	422.42056
2369.1565	442.72208
2370.6501	474.0209
2372.144	476
2373.6379	443.36887
2375.1318	424.71204
2376.6257	460.26358
2378.1196	461.5513
2379.6133	458.09183
2381.1072	466.75885
2382.6011	429.39282
2384.095	449.34412
2385.5889	474.23819
2387.0825	442.07144
2388.5764	449.31644
2390.0703	455.6853
2391.5642	452.50986
2393.0581	422.72034
2394.5518	440.75299
2396.0457	488.00226
2397.5396	475.27621
2399.0334	446.13422
2400.5273	457.15433
2402.021	438.05307
2403.5149	482.06223
2405.0088	445.07635
2406.5027	463.83325
2407.9966	437.51129
2409.4902	461.94556
2410.9841	432.82605
2412.478	454.18893
2413.9719	469.31403
2415.4658	460.40314
2416.9595	442.0004
2418.4534	450.67151
2419.9473	449.84109
2421.4412	429.0105
2422.9351	458.41956
2424.4287	436.89316
2425.9226	444.72757
2427.4165	449.64392
2428.9104	403.09021
2430.4043	446.43121
2431.8979	422.23907
2433.3918	446.26068
2434.8857	478.42059
2436.3796	436.80774
2437.8735	427.87369
2439.3674	449.15756
2440.8611	424.77121
2442.355	422.00949
2443.8489	418.76685
2445.3428	412.6264
2446.8367	438.45648
2448.3303	394.97083
2449.8242	454.04358
2451.3181	461.18799
2452.812	442.83731
2454.3059	449
2455.7996	445.26733
2457.2935	425.64063
2458.7874	427.633
2460.2813	449.72076
2461.7751	452.33728
2463.2688	410.79178
2464.7627	416.23929
2466.2566	438.64798
2467.7505	469.69101
2469.2444	410.76291
2470.738	407.78558
2472.2319	449.17767
2473.7258	443.93875
2475.2197	427.63605
2476.7136	437.42828
2478.2073	441.28061
2479.7012	433.34485
2481.1951	442.04254
2482.689	429.02063
2484.1829	444.36365
2485.6765	430.47278
2487.1704	409.31271
2488.6643	419.03043
2490.1582	422.06851
2491.6521	413.44812
2493.1458	422.66806
2494.6396	433.67999
2496.1335	431.08002
2497.6274	408.4707
2499.1213	434.25482
2500.6152	449.98676
2502.1089	418.80768
2503.6028	417.18893
2505.0967	407.05762
2506.5906	442.6821
2508.0845	443.02789
2509.5781	401.99414
2511.072	454.56195
2512.5659	438.9064
2514.0598	418.77423
2515.5537	437.12839
2517.0474	434.5025
2518.5413	421.41931
2520.0352	412.39691
2521.5291	426.57339
2523.0229	454.43405
2524.5166	450.85532
2526.0105	452.95975
2527.5044	401.82434
2528.9983	417.67596
2530.4922	438.40256
2531.9858	421.89551
2533.4797	426.79736
2534.9736	432.33557
2536.4675	435.30505
2537.9614	449.56104
2539.4551	435.30914
2540.949	421.2897
2542.4429	447.89252
2543.9368	423.44894
2545.4307	449.87979
2546.9243	421
2548.4182	421
2549.9121	420.67725
2551.406	416.73648
2552.8999	434.69186
2554.3936	442.36761
2555.8875	415.71088
2557.3813	429.77249
2558.8752	435.32407
2560.3691	454.41415
2561.863	423.06607
2563.3567	429.01541
2564.8506	432.80917
2566.3445	452.46445
2567.8384	449.7449
2569.3323	428.06689
2570.8259	435.31433
2572.3198	445.50241
2573.8137	440.20197
2575.3076	435.47638
2576.8015	456.57678
2578.2952	450.21613
2579.7891	460.48169
2581.283	448.30237
2582.7769	448.86029
2584.2708	440.44339
2585.7644	428.90152
2587.2583	449.62036
2588.7522	449.81226
2590.2461	426.09155
2591.74	429.89191
2593.2336	441.9104
2594.7275	426.28601
2596.2214	441.79285
2597.7153	401.20743
2599.2092	425.21054
2600.7029	434.75278
2602.1968	424.3736
2603.6907	438.90237
2605.1846	463.93378
2606.6785	436.79062
2608.1721	443.08493
2609.666	430.76468
2611.1599	482.92233
2612.6538	456.80911
2614.1477	416.88174
2615.6414	449.4812
2617.1353	452.94217
2618.6292	445.76892
2620.123	448.54987
2621.6169	457.70639
2623.1108	460.59723
2624.6045	426.64682
2626.0984	459.55872
2627.5923	434.2197
2629.0862	425.88489
2630.5801	424.29678
2632.0737	447.20859
2633.5676	458.28326
2635.0615	470.82602
2636.5554	442.10455
2638.0493	430.85541
2639.543	443.59036
2641.0369	443.51782
2642.5308	423.47272
2644.0247	453.87079
2645.5186	450.94046
2647.0122	454.31
2648.5061	447.76639
2650	439.2728
2651.4939	429.26208
2652.9878	443.79196
2654.4814	468.49231
2655.9753	443.74939
2657.4692	420.60004
2658.9631	462.48297
2660.457	459.64749
2661.9507	444.28073
2663.4446	442.60349
2664.9385	467.38205
2666.4324	437.97079
2667.9263	420.89572
2669.4199	451.84268
2670.9138	453.84125
2672.4077	458.48804
2673.9016	440.09311
2675.3955	456.01822
2676.8892	436.18201
2678.3831	450.44846
2679.877	437.92932
2681.3708	443.89755
2682.8647	459.14832
2684.3586	447.36667
2685.8523	448.95221
2687.3462	442.38449
2688.8401	446.89038
2690.334	437.60208
2691.8279	441.474
2693.3215	431.91476
2694.8154	450.16266
2696.3093	435.64117
2697.8032	417.99741
2699.2971	437.29141
2700.7908	454.06927
2702.2847	450.30627
2703.7786	445.54272
2705.2725	458.51001
2706.7664	455.0954
2708.26	456.38559
2709.7539	444.48807
2711.2478	444.85983
2712.7417	417.92151
2714.2356	443.76089
2715.7292	435.14627
2717.2231	444.75684
2718.717	442.53397
2720.2109	455.61459
2721.7048	458.90543
2723.1985	437.3793
2724.6924	437.64188
2726.1863	446.86078
2727.6802	443.11908
2729.1741	444.75446
2730.6677	458.05548
2732.1616	457.89481
2733.6555	443.05814
2735.1494	430.61331
2736.6433	437.41153
2738.137	441.38046
2739.6309	435.05194
2741.1248	439.14514
2742.6187	418.39658
2744.1125	442.08655
2745.6064	435.96487
2747.1001	441.81354
2748.594	441.89914
2750.0879	453.92947
2751.5818	441.6889
2753.0757	457.42902
2754.5693	422.99936
2756.0632	443.685
2757.5571	440.03375
2759.051	440.19666
2760.5449	424.1405
2762.0386	423.40881
2763.5325	432.89194
2765.0264	440.85941
2766.5203	435.7211
2768.0142	418.75436
2769.5078	449.63773
2771.0017	432.46021
2772.4956	435.25586
2773.9895	449.07181
2775.4834	433.88556
2776.9771	433.49005
2778.4709	441.12814
2779.9648	432.16193
2781.4587	417.88736
2782.9526	444.76288
2784.4463	439.69403
2785.9402	435.27124
2787.4341	444.86765
2788.928	435.0921
2790.4219	422.61823
2791.9155	423.35608
2793.4094	432.39056
2794.9033	435.58655
2796.3972	437.93701
2797.8911	437.77649
2799.3848	438.23386
2800.8787	446.97614
2802.3726	458.82278
2803.8665	435.39545
2805.3604	443.58429
2806.8542	423.6485
2808.3479	421.68826
2809.8418	436.59213
2811.3357	431.19519
2812.8296	430.74118
2814.3235	444.03073
2815.8171	442.02866
2817.311	440.81915
2818.8049	436.47095
2820.2988	438.58066
2821.7927	437.51953
2823.2864	431.73096
2824.7803	408.45401
2826.2742	427.35327
2827.7681	438.01984
2829.262	419.93619
2830.7556	423.82089
2832.2495	428.54715
2833.7434	429.82263
2835.2373	439.034
2836.7312	432.51031
2838.2249	419.54355
2839.7188	424.39078
2841.2126	436.32449
2842.7065	432.65039
2844.2004	438.87897
2845.6941	412.52316
2847.188	424.08365
2848.6819	427.51511
2850.1758	442.03195
2851.6697	423.90549
2853.1633	423.28619
2854.6572	416.62375
2856.1511	415.71542
2857.645	420.18112
2859.1389	431.59299
2860.6326	431.0571
2862.1265	430.63129
2863.6204	431.00787
2865.1143	436.95163
2866.6082	452.35178
2868.1021	438.57132
2869.5957	439.47076
2871.0896	439.11057
2872.5835	417.57159
2874.0774	429.94376
2875.5713	422.41281
2877.0649	413.73825
2878.5588	429.89737
2880.0527	414.87875
2881.5466	433.74887
2883.0405	443.15128
2884.5342	424.33981
2886.0281	422.09296
2887.522	429.23102
2889.0159	413.16095
2890.5098	430.49338
2892.0034	435.71603
2893.4973	438.69217
2894.9912	438.4386
2896.4851	421.34274
2897.979	416.9733
2899.4727	419.28253
2900.9666	437.21082
2902.4604	425.25415
2903.9543	413.58502
2905.4482	428.10904
2906.9419	416.22189
2908.4358	416.12042
2909.9297	436.98669
2911.4236	431.84973
2912.9175	403.97635
2914.4111	397.5545
2915.905	413.20911
2917.3989	418.63791
2918.8928	428.44128
2920.3867	416.53702
2921.8804	414.55457
2923.3743	438.26498
2924.8682	431.02747
2926.3621	421.14325
2927.856	424.98721
2929.3499	430.51001
2930.8435	411.62183
2932.3374	422.52197
2933.8313	436.38266
2935.3252	402.19464
2936.8191	434.95758
2938.3127	427.77982
2939.8066	416.6041
2941.3005	404.72638
2942.7944	419.16919
2944.2883	431.44601
2945.782	431.37006
2947.2759	419.25104
2948.7698	431.0459
2950.2637	425.68649
2951.7576	421.41074
2953.2512	432.52005
2954.7451	399.09982
2956.239	423.99136
2957.7329	426.7063
2959.2268	425.5798
2960.7205	431.61548
2962.2144	415.56131
2963.7083	430.56586
2965.2021	421.39841
2966.696	434.70428
2968.1897	449.22437
2969.6836	440.2464
2971.1775	427.86646
2972.6714	432.90628
2974.1653	424.00024
2975.6589	415.97675
2977.1528	422.52103
2978.6467	438.73352
2980.1406	426.3974
2981.6345	413.57526
2983.1282	433.03619
2984.6221	422.8891
2986.116	434.03036
2987.6099	437.0329
2989.1038	428.41971
2990.5977	415.50848
2992.0913	407.41223
2993.5852	413.96756
2995.0791	425.86447
2996.573	414.38333
2998.0669	416.70154
2999.5605	427.22879
3001.0544	413.77792
3002.5483	419.77563
3004.0422	406.89493
3005.5361	426.94943
3007.0298	422.26315
3008.5237	416.27063
3010.0176	425.58975
3011.5115	423.14197
3013.0054	425.09482
3014.499	420.48019
3015.9929	438.81424
3017.4868	397.01047
3018.9807	403.59515
3020.4746	432.10431
3021.9683	410.86401
3023.4622	409.06754
3024.9561	421.62781
3026.45	431.89594
3027.9438	429.12604
3029.4375	417.34369
3030.9314	430.7251
3032.4253	416.28625
3033.9192	407.55524
3035.4131	423.72644
3036.9067	402.18616
3038.4006	433.02585
3039.8945	420.31049
3041.3884	408.40765
3042.8823	419.63956
3044.376	411.3562
3045.8699	423.11035
3047.3638	401.22116
3048.8577	408.7626
3050.3516	412.66605
3051.8455	432.02948
3053.3391	428.88654
3054.833	435.91849
3056.3269	413.7554
3057.8208	417.31064
3059.3147	403.82407
3060.8083	408.93573
3062.3022	425.30582
3063.7961	390.0878
3065.29	406.18246
3066.7839	423.99185
3068.2776	436.25644
3069.7715	426.73123
3071.2654	441.62027
3072.7593	423.11264
3074.2532	420.07166
3075.7468	404.28986
3077.2407	396.81949
3078.7346	415.97586
3080.2285	438.05682
3081.7224	403.20221
3083.2161	439.79758
3084.71	424.05817
3086.2039	396.07031
3087.6978	404.64783
3089.1917	416.74091
3090.6853	391.16272
3092.1792	435.95996
3093.6731	395.82544
3095.167	424.53677
3096.6609	415.58334
3098.1545	392.33844
3099.6484	413.63126
3101.1423	447.45844
3102.6362	424.87854
3104.1301	425.78665
3105.624	400.63766
3107.1177	402.36551
3108.6116	408.17181
3110.1055	421.06345
3111.5994	392.06158
3113.0933	429.24451
3114.5869	411.70651
3116.0808	414.20883
3117.5747	405.70132
3119.0686	417.91644
3120.5625	430.17517
3122.0562	435.47894
3123.55	428.30066
3125.0439	416.3179
3126.5378	409.99274
3128.0317	412.0592
3129.5254	422.55518
3131.0193	409.27594
3132.5132	404.61456
3134.0071	418.48004
3135.501	406.04749
3136.9946	418.61002
3138.4885	412.23026
3139.9824	411.05966
3141.4763	394.42148
3142.9702	406.7626
3144.4639	416.97021
3145.9578	416
3147.4517	396.09903
3148.9456	390.51871
3150.4395	373
3151.9331	397.50925
3153.427	405.15598
3154.9209	448.95306
3156.4148	397.51819
3157.9087	404.01883
3159.4023	420.01379
3160.8962	411.2095
3162.3901	426.46042
3163.884	400.17557
3165.3779	405.84103
3166.8718	415.14288
3168.3655	414.14825
3169.8594	421.2724
3171.3533	418.60553
3172.8472	433.38599
3174.3411	422.02408
3175.8347	421.6355
3177.3286	395.49271
3178.8225	429.14493
3180.3164	411.74057
3181.8103	396.90918
3183.304	408.72839
3184.7979	427.47321
3186.2917	444.69205
3187.7856	412.12451
3189.2795	415.84512
3190.7732	396.16086
3192.2671	426.92188
3193.761	420.73181
3195.2549	408.56
3196.7488	415.7114
3198.2424	404.73907
3199.7363	441.38824
3201.2302	444.10037
3202.7241	426.40997
3204.218	437.55283
3205.7117	386.85059
3207.2056	432.80978
3208.6995	413.40323
3210.1934	438.89206
3211.6873	448.02039
3213.1809	422.47995
3214.6748	394.20847
3216.1687	419.43268
3217.6626	400.80753
3219.1565	401.00464
3220.6501	405.18832
3222.144	386.17474
3223.6379	420.34271
3225.1318	413.79239
3226.6257	406.50595
3228.1196	425.84018
3229.6133	402.2243
3231.1072	417.03677
3232.6011	400.64905
3234.095	406.84064
3235.5889	395.8967
3237.0825	426.75131
3238.5764	403.83429
3240.0703	415.65732
3241.5642	433.86661
3243.0581	394.84927
3244.5518	391.96207
3246.0457	424.21588
3247.5396	376.58847
3249.0334	411.56158
3250.5273	421.90121
3252.021	416.24548
3253.5149	408
3255.0088	381.34976
3256.5027	399.27795
3257.9966	429.09372
3259.4902	412.8566
3260.9841	389.3338
3262.478	372.34082
3263.9719	403.83871
3265.4658	411.94827
3266.9595	404.27737
3268.4534	411.41959
3269.9473	400.0174
3271.4412	399.81815
3272.9351	390.38138
3274.4287	392.50491
3275.9226	413.30917
3277.4165	437.79843
3278.9104	395.23691
3280.4043	383.85132
3281.8979	386.76157
3283.3918	414.65332
3284.8857	383.35138
3286.3796	404.44012
3287.8735	408.46356
3289.3674	398.10593
3290.8611	390.6395
3292.355	382.70648
3293.8489	429.8765
3295.3428	412.09601
3296.8367	404.60382
3298.3303	433.90305
3299.8242	406.42825
3301.3181	385.16833
3302.812	385.90863
3304.3059	402.48059
3305.7996	401.72061
3307.2935	402.97211
3308.7874	371.20605
3310.2813	398.52771
3311.7751	400.98489
3313.2688	437.68216
3314.7627	417.76535
3316.2566	398.56927
3317.7505	405.42487
3319.2444	387.06094
3320.738	377.94345
3322.2319	394.56915
3323.7258	416.31384
3325.2197	402.44278
3326.7136	391.15808
3328.2073	405.80942
3329.7012	403.983
3331.1951	370.54105
3332.689	375.72006
3334.1829	403.76956
3335.6765	403.66739
3337.1704	385.8584
3338.6643	373.33438
3340.1582	399.94174
3341.6521	386.905
3343.1458	407.84644
3344.6396	417.69553
3346.1335	397.56393
3347.6274	414.39609
3349.1213	376.57031
3350.6152	380.84567
3352.1089	375.00003
3353.6028	393.82907
3355.0967	378.39377
3356.5906	404.19574
3358.0845	410.36719
3359.5781	426.24051
3361.072	411.67679
3362.5659	392.44455
3364.0598	397.4241
3365.5537	388.04764
3367.0474	392.61472
3368.5413	419.86978
3370.0352	395.47198
3371.5291	391.46198
3373.0229	395.34738
3374.5166	382.95651
3376.0105	402.27359
3377.5044	382.99326
3378.9983	400.97311
3380.4922	402.10989
3381.9858	393.95493
3383.4797	390.41815
3384.9736	398.98331
3386.4675	392.60751
3387.9614	395.06885
3389.4551	401.84479
3390.949	399.741
3392.4429	402.20065
3393.9368	401.17389
3395.4307	387.93637
3396.9243	350.17169
3398.4182	372.36069
3399.9121	406.33191
3401.406	377.75702
3402.8999	366.88943
3404.3936	395.5386
3405.8875	381.79547
3407.3813	384.97598
3408.8752	399.22678
3410.3691	389.97556
3411.863	385.44437
3413.3567	405.2207
3414.8506	410.97659
3416.3445	401.06906
3417.8384	404.73151
3419.3323	384.36584
3420.8259	398.30682
3422.3198	393.52505
3423.8137	367.49799
3425.3076	397.55527
3426.8015	404.68506
3428.2952	372.88208
3429.7891	359.51648
3431.283	382.01361
3432.7769	367.00058
3434.2708	384.54785
3435.7644	389.38794
3437.2583	362.43146
3438.7522	394.5618
3440.2461	388.41623
3441.74	395
3443.2336	392.17352
3444.7275	417.85233
3446.2214	396.70895
3447.7153	390.60992
3449.2092	372.44028
3450.7029	382.75455
3452.1968	388.33841
3453.6907	368.72971
3455.1846	372.47171
3456.6785	366.76715
3458.1721	384.43829
3459.666	423.64142
3461.1599	398.14923
3462.6538	393.2934
3464.1477	379.76495
3465.6414	377.1073
3467.1353	375.50092
3468.6292	365.16306
3470.123	385.94891
3471.6169	386.46677
3473.1108	365.50977
3474.6045	391.93149
3476.0984	384.12613
3477.5923	376.10205
3479.0862	361.48837
3480.5801	388.73801
3482.0737	380
3483.5676	385.79547
3485.0615	374.69113
3486.5554	386.87839
3488.0493	383.86865
3489.543	368.74652
3491.0369	384.91
3492.5308	389.95917
3494.0247	386.22955
3495.5186	413.39584
3497.0122	378.26859
3498.5061	387.98505
3500	380.42526
