100	416.15604
101.49385	387.73843
102.9877	373.99252
104.48154	396.20938
105.9754	424.45029
107.46925	430.02234
108.9631	401.58252
110.45694	385.07831
111.95079	409.01086
113.44464	421.09335
114.93849	413
116.43233	411.11966
117.92619	379.39832
119.42004	389.52692
120.91389	418.01437
122.40773	434.85233
123.90158	416.18591
125.39543	368.97351
126.88928	400.04541
128.38313	403.60114
129.87698	392.13376
131.37082	391.3652
132.86467	422.87778
134.35852	394.35944
135.85237	403.84918
137.34622	418.39337
138.84007	429.23404
140.33392	440.60034
141.82777	436.5231
143.32161	402.58453
144.81546	391.63336
146.30931	402.22986
147.80316	413.84964
149.29701	392.63135
150.79086	393.58392
152.28471	408.59991
153.77856	423.52264
155.27242	431.48343
156.76625	432.34735
158.2601	423.36154
159.75395	408.82828
161.2478	413.20789
162.74165	414.47079
164.2355	393.92929
165.72935	376.76123
167.22321	411.16446
168.71704	423.99622
170.21089	427.67059
171.70474	424.79944
173.19859	408.87311
174.69244	421.9664
176.18629	412.23306
177.68015	414.15567
179.174	430.23529
180.66783	445.87424
182.16168	428.65588
183.65553	413.02927
185.14938	419.92932
186.64323	433.82495
188.13708	440.78293
189.63094	435.20316
191.12479	449.95908
192.61862	427.9502
194.11247	438.0535
195.60632	442.78021
197.10017	419.68378
198.59402	427.89737
200.08788	450.68906
201.58173	442.74841
203.07558	450.3808
204.56943	458.04163
206.06326	428.90485
207.55711	428.08267
209.05096	433.91025
210.54482	444.96429
212.03867	439.76556
213.53252	429.62473
215.02637	466.09302
216.52022	438.11169
218.01405	435.68793
219.5079	444.91736
221.00175	448.23264
222.49561	440.24829
223.98946	453.42624
225.48331	469.73987
226.97716	452.65222
228.47101	425.12762
229.96484	413.4342
231.45869	431.83844
232.95255	430.18961
234.4464	436.56033
235.94025	426.27405
237.4341	431.48499
238.92795	452.55804
240.4218	435.75558
241.91563	458.86197
243.40948	454.87857
244.90334	434.43732
246.39719	431.08527
247.89104	451.15582
249.38489	413.99155
250.87874	431.47043
252.37259	459.90161
253.86644	466.724
255.36028	461.08578
256.85413	466.21628
258.34799	444.72247
259.84183	428.56592
261.33566	439.83185
262.82953	447.69632
264.32336	445.3949
265.81723	455.60626
267.31107	487.8779
268.80493	478.29922
270.29877	455.99561
271.79263	440.11795
273.28647	440.26694
274.7803	453.09418
276.27417	455.57904
277.76801	455.31268
279.26187	434.89536
280.75571	425.63715
282.24957	445.90067
283.74341	454.98941
285.23724	443.38184
286.73111	433.74991
288.22495	427.06931
289.71881	437.01996
291.21265	459.73056
292.70651	429.86002
294.20035	475.74905
295.69421	474.29373
297.18805	460.02435
298.68188	449.3421
300.17575	438.22208
301.66959	406.66092
303.16345	434.08524
304.65729	428.43332
306.15115	411.94272
307.64499	409.24661
309.13885	427.7804
310.63269	426.11957
312.12653	420.59851
313.62039	408.14093
315.11423	402.7402
316.60809	406.60165
318.10193	409.31964
319.59579	395.18921
321.08963	411.53244
322.58347	399.15829
324.07733	407.93753
325.57117	419.62009
327.06503	372.62866
328.55887	369.29675
330.05273	393.25757
331.54657	409.8653
333.04044	405.81436
334.53427	390.19461
336.02811	381.42932
337.52197	348.91165
339.01581	387.00037
340.50967	407.71326
342.00351	398.89188
343.49738	384.18451
344.99121	393.14645
346.48505	368.1087
347.97891	346.8884
349.47275	348.19199
350.96661	354.7373
352.46045	359.1557
353.95432	366.88516
355.44815	381.92221
356.94202	340.33789
358.43585	339.00455
359.92969	354.49634
361.42355	361.6026
362.91739	351.21201
364.41125	338.66885
365.90509	334.04114
367.39896	327.97385
368.89279	351.03403
370.38666	368.93411
371.88049	345.7103
373.37433	374.16895
374.86819	343.30338
376.36203	334.04987
377.8559	344.21228
379.34973	354.69977
380.8436	353.30209
382.33743	359.98264
383.83127	335.68069
385.32513	345.88782
386.81897	344.76031
388.31284	335.58652
389.80667	334.53503
391.30054	341.58032
392.79437	357.51746
394.28824	352.2088
395.78207	356.12396
397.27591	355.40875
398.76978	348.1788
400.26361	357.8024
401.75748	342.68921
403.25131	374.56628
404.74518	366.66833
406.23901	353.85165
407.73288	350.21237
409.22672	338.27673
410.72055	348.37369
412.21442	315.09686
413.70825	346.26639
415.20212	355.42987
416.69595	334.64636
418.18982	327.28128
419.68365	339.89999
421.17749	362.56421
422.67136	342.61258
424.16519	338.2673
425.65906	344.6391
427.15289	335.27863
428.64676	301.67419
430.14059	314.32211
431.63446	340.11087
433.1283	348.42688
434.62213	346.75278
436.116	350.17596
437.60983	361.20575
439.1037	330.01389
440.59753	331.94376
442.0914	343.11307
443.58524	346.61966
445.07907	344.96075
446.57294	342.73688
448.06677	321.07813
449.56064	329.52798
451.05447	359.58157
452.54834	344.3894
454.04218	323.70367
455.53604	329.85196
457.02988	335.1622
458.52371	325.86911
460.01758	337.26956
461.51141	341
463.00528	344.65964
464.49911	352.63803
465.99298	358.30948
467.48682	343.0881
468.98068	356.4545
470.47452	346.62274
471.96835	341
473.46222	333.0148
474.95605	321.13422
476.44992	328.04218
477.94376	362.75311
479.43762	334.4928
480.93146	313.91867
482.42529	332.01205
483.91916	350.73813
485.41299	332.58969
486.90686	356.72623
488.4007	315.99512
489.89456	336.38416
491.3884	334.78427
492.88226	323.20166
494.3761	328.18961
495.86993	344.38834
497.3638	321.48163
498.85764	343.04355
500.3515	347.71292
501.84534	326.78964
503.3392	309.42484
504.83304	322.13763
506.3269	346.19568
507.82074	309.67206
509.31458	307.96689
510.80844	340.95093
512.30231	335.59634
513.79614	312.70273
515.28998	344.42691
516.78381	364.8559
518.27771	354.85587
519.77155	322.37515
521.26538	303.52716
522.75922	306.9715
524.25305	316.25259
525.74695	309.73038
527.24078	324.21695
528.73462	316.1413
530.22845	304.79388
531.72229	308.66278
533.21619	322.78766
534.71002	324.41592
536.20386	294.35043
537.69769	311.39334
539.19159	314.54575
540.68542	291.19977
542.17926	295.69379
543.6731	321.65112
545.16693	328.90204
546.66083	310.2764
548.15466	294.91989
549.6485	307.20221
551.14233	298.75851
552.63623	308.23602
554.13007	325.97049
555.6239	316.17606
557.11774	311.7634
558.61157	301.5018
560.10547	306.56317
561.5993	319.51782
563.09314	317.76291
564.58698	301.27164
566.08087	290
567.57471	290.06711
569.06854	299.48404
570.56238	298.84479
572.05621	323.86539
573.55011	332.66086
575.04395	312.4043
576.53778	293.41611
578.03162	278.01483
579.52551	304.5845
581.01935	302.56714
582.51318	297.14273
584.00702	296.71381
585.50085	300.14435
586.99475	301.56171
588.48859	292.96146
589.98242	274.08383
591.47626	298.28479
592.97009	314.76343
594.46399	309.44531
595.95782	296.70773
597.45166	295.09384
598.9455	289.94052
600.43939	284.78632
601.93323	288.3688
603.42706	295.28729
604.9209	290.95517
606.41473	284.67834
607.90863	293
609.40247	293.6012
610.8963	313.38174
612.39014	303.31189
613.88403	286.86639
615.37787	275.73389
616.8717	275.59207
618.36554	283.37457
619.85938	286.8775
621.35327	320.45786
622.84711	317.06696
624.34094	302.36737
625.83478	292.04156
627.32867	292.90112
628.82251	293.72549
630.31635	273.6597
631.81018	302.96771
633.30402	300.18561
634.79791	307.64111
636.29175	298.27869
637.78558	284.82742
639.27942	289.33945
640.77332	304.27438
642.26715	276.65845
643.76099	299.59238
645.25482	288.47095
646.74866	289.97015
648.24255	306.82162
649.73639	315.06854
651.23022	305.3316
652.72406	327.26758
654.21796	301.34366
655.71179	294.23581
657.20563	297.94388
658.69946	302.93195
660.1933	310.5629
661.68719	313.98672
663.18103	288.31
664.67487	291.77054
666.1687	322.70111
667.66254	305.05652
669.15643	297.32068
670.65027	300.18845
672.1441	295.74036
673.63794	290.44012
675.13184	311.96268
676.62567	303.28983
678.11951	301.26239
679.61334	281.66663
681.10718	284.06766
682.60107	308.76715
684.09491	318.05707
685.58875	294.92703
687.08258	294.05975
688.57648	310.96164
690.07031	312.29895
691.56415	296.86673
693.05798	285.41196
694.55182	294.67825
696.04572	315.36938
697.53955	306.05252
699.03339	308.65781
700.52722	306.73651
702.02112	292.91248
703.51495	292.88235
705.00879	303.53558
706.50262	306.38055
707.99646	302.10822
709.49036	311.68311
710.98419	318.72626
712.47803	313.59796
713.97186	309.83694
715.46576	299.96951
716.95959	303.16956
718.45343	329.52393
719.94727	316.58832
721.4411	338.35214
722.935	319.85574
724.42883	310.93881
725.92267	313.38806
727.4165	308.17648
728.91034	299.79318
730.40424	308.67191
731.89807	307.21381
733.39191	312.44403
734.88574	320.80136
736.37964	321.04279
737.87347	333.12961
739.36731	333.0585
740.86115	319.33276
742.35498	328.69266
743.84888	315.22055
745.34271	326.58151
746.83655	324.94385
748.33038	339.9487
749.82428	338.25464
751.31812	323.75861
752.81195	317.51978
754.30579	320.20413
755.79962	327.7659
757.29352	304.16653
758.78735	321.46021
760.28119	336.23068
761.77502	324.74313
763.26892	307.46762
764.76276	306.55139
766.25659	312.33606
767.75043	321.19351
769.24426	338.69739
770.73816	309.79449
772.23199	310.20184
773.72583	324.73236
775.21967	326.76184
776.71356	315.66599
778.2074	313.86832
779.70123	324.4614
781.19507	300.77176
782.6889	304.19882
784.1828	302.74115
785.67664	313.17105
787.17047	326.03568
788.66431	327.00565
790.15814	320.21466
791.65204	311.20343
793.14587	315.59625
794.63971	310.42093
796.13354	321.16104
797.62744	350.29288
799.12128	349.91693
800.61511	329.06378
802.10895	335.51437
803.60278	325.28305
805.09668	328.802
806.59052	335.64276
808.08435	351.19025
809.57819	338.14169
811.07208	328.7569
812.56592	336.15048
814.05975	339.69623
815.55359	329.90625
817.04742	313.16983
818.54132	333.93039
820.03516	320.42816
821.52899	332.76859
823.02283	349.70859
824.51672	349.24789
826.01056	339.27823
827.50439	347.36588
828.99823	384.77676
830.49207	359.19354
831.98596	337.6391
833.4798	352.98663
834.97363	375.72424
836.46747	371.46878
837.96136	353.6636
839.4552	348.39133
840.94904	334.05344
842.44287	351.72034
843.93671	377.21747
845.4306	371.96133
846.92444	380.46658
848.41827	360.95053
849.91211	339.83569
851.40601	347.47229
852.89984	361.03845
854.39368	383.95087
855.88751	368.02625
857.38135	378.58954
858.87524	346.07239
860.36908	343.36111
861.86292	345.68451
863.35675	336.31354
864.85059	332.03375
866.34448	336.60062
867.83832	327.97421
869.33215	327.08817
870.82599	325.40396
872.31989	333.21204
873.81372	331.29196
875.30756	324.71295
876.80139	318.90262
878.29523	310.68951
879.78912	304.29916
881.28296	314.11139
882.77679	332.74585
884.27063	317.8165
885.76453	306.97934
887.25836	306.78381
888.7522	319.67288
890.24603	319.68887
891.73987	295.21014
893.23376	301.9061
894.7276	293.0209
896.22144	292.99997
897.71527	303.8689
899.20917	297.01605
900.703	298.10205
902.19684	301.668
903.69067	312.33685
905.18451	335.21399
906.67841	325.69818
908.17224	300.0148
909.66608	303.57498
911.15991	311.83917
912.65381	312.65155
914.14764	318.21899
915.64148	325.73886
917.13531	332.81949
918.62915	334.5231
920.12305	313.63708
921.61688	291.47446
923.11072	311.08386
924.60455	322.65295
926.09839	327.78754
927.59229	324.87662
929.08612	329.69623
930.57996	330.16492
932.07379	318.32825
933.56769	319.77527
935.06152	309.28638
936.55536	331.60388
938.04919	312.05023
939.54303	313.11823
941.03693	334.3765
942.53076	336.66214
944.0246	321.40457
945.51843	311.08151
947.01233	305.18671
948.50616	288.77029
950	277.14789
951.49384	283.18704
952.98767	287.89172
954.48157	282.26379
955.9754	276.15671
957.46924	273.53601
958.96307	270.84274
960.45697	275.65698
961.95081	296.04883
963.44464	269.99609
964.93848	308.50446
966.43231	269.06778
967.92621	283.77496
969.42004	283.79175
970.91388	270.55252
972.40771	265.12372
973.90161	267.03445
975.39545	262.59427
976.88928	254.81436
978.38312	260.81454
979.87695	248.24144
981.37085	253.46899
982.86469	257.82721
984.35852	262.02676
985.85236	262.48962
987.34619	259.39316
988.84009	258.50174
990.33392	256.63614
991.82776	238.22845
993.32159	267.87582
994.81549	258.1459
996.30933	256.20444
997.80316	258.77866
999.297	243.95198
1000.7908	235.47284
1002.2847	242.73337
1003.7786	246.76332
1005.2724	241.33881
1006.7662	249.18375
1008.2601	232.08569
1009.754	238.27618
1011.2478	255.7545
1012.7416	246.03117
1014.2355	237.00171
1015.7294	237.00546
1017.2232	243.02765
1018.717	240.78964
1020.2109	226.53729
1021.7048	248.12462
1023.1986	281.92313
1024.6924	275.61203
1026.1863	238.31334
1027.6802	247.23631
1029.174	244.68102
1030.6678	252.62067
1032.1617	255.18625
1033.6555	240.34892
1035.1494	239.57271
1036.6432	248
1038.1371	247.79718
1039.631	243.27682
1041.1248	250.64082
1042.6187	255.01376
1044.1124	244.15561
1045.6063	237.43724
1047.1002	250.07973
1048.594	261.28424
1050.0879	252.50908
1051.5817	241.81177
1053.0756	225.27773
1054.5695	248.82596
1056.0632	251.69734
1057.5571	242.33931
1059.051	232.88828
1060.5448	234.32228
1062.0387	240.66301
1063.5325	240.56577
1065.0264	238.68787
1066.5203	244.24287
1068.014	242.60126
1069.5079	230.37041
1071.0017	252.14703
1072.4956	253
1073.9895	244.42456
1075.4833	230.31461
1076.9772	240.47908
1078.4709	249.48961
1079.9648	242.23615
1081.4587	238.80132
1082.9525	247.39944
1084.4464	240.90088
1085.9402	234.8788
1087.4341	252.15094
1088.928	236.57471
1090.4218	230.13103
1091.9156	233.09962
1093.4095	231.44241
1094.9033	228.49672
1096.3972	231.72429
1097.891	239.59142
1099.3849	241.72168
1100.8788	227.38657
1102.3726	207.32225
1103.8665	229.17978
1105.3602	230
1106.8541	235.51401
1108.348	232.80666
1109.8418	228.55629
1111.3357	226.47713
1112.8295	223.39284
1114.3234	227.61896
1115.8173	232.70386
1117.311	209.74782
1118.8049	227.33833
1120.2988	220.03061
1121.7926	232.72168
1123.2865	239.75015
1124.7803	217.50275
1126.2742	209
1127.7681	214.05499
1129.2618	222.27499
1130.7557	232.43877
1132.2495	234.64763
1133.7434	224.12492
1135.2373	238.34497
1136.7311	233.09804
1138.225	214.81219
1139.7188	230.6221
1141.2126	242.47446
1142.7065	240.07019
1144.2003	232.42131
1145.6942	224.71735
1147.188	236.76772
1148.6819	249.40712
1150.1758	240.82521
1151.6696	246.61293
1153.1635	239.17442
1154.6573	224.50247
1156.1511	209.84412
1157.645	239.22234
1159.1388	239.31508
1160.6327	238
1162.1266	238.6151
1163.6204	226.22173
1165.1143	225.78773
1166.608	238.63284
1168.1019	237.14424
1169.5958	237.43564
1171.0896	242.98912
1172.5835	214.51279
1174.0773	226.45987
1175.5712	203.3307
1177.0651	235.81572
1178.5588	227.84976
1180.0527	213.39293
1181.5466	223.38062
1183.0404	234.52744
1184.5343	239.49133
1186.0281	233.65611
1187.522	205.24808
1189.0159	216.60689
1190.5096	221.15849
1192.0035	235.87599
1193.4973	225.03978
1194.9912	220.6657
1196.4851	229.05743
1197.9789	221.86639
1199.4728	225.35638
1200.9666	217.51306
1202.4604	208.52185
1203.9543	219.14983
1205.4481	227.1624
1206.942	217.32957
1208.4359	207.12807
1209.9297	209.82835
1211.4236	243.015
1212.9174	236.83411
1214.4113	222.07637
1215.9052	225.67422
1217.3989	208.71832
1218.8928	211.95029
1220.3866	232.26233
1221.8805	237.77534
1223.3744	225.24631
1224.8682	214.43274
1226.3621	209.68306
1227.8558	201.88371
1229.3497	233.3745
1230.8436	223.19966
1232.3374	229.34184
1233.8313	218.36404
1235.3251	213.73022
1236.819	221.86914
1238.3129	213.24573
1239.8066	213.52518
1241.3005	221
1242.7944	220.61484
1244.2882	216.88432
1245.7821	215.0011
1247.2759	229.18861
1248.7698	221.35849
1250.2637	234.75354
1251.7574	221.77193
1253.2513	229.72231
1254.7451	227.00131
1256.239	215.0885
1257.7329	217.54477
1259.2267	213.43312
1260.7206	214.63309
1262.2144	225.82388
1263.7083	233.83495
1265.2021	231.0876
1266.6959	215.65363
1268.1898	212.07349
1269.6837	216.68088
1271.1775	202.44336
1272.6714	237.76169
1274.1652	236.51736
1275.6591	223.19336
1277.153	220.73033
1278.6467	226.94347
1280.1406	232.36227
1281.6344	227.22787
1283.1283	234.54379
1284.6222	244.12152
1286.116	230.49594
1287.6099	227.92773
1289.1036	235.59894
1290.5975	228.89359
1292.0914	228.45499
1293.5852	239.63435
1295.0791	245.40823
1296.5729	210.99983
1298.0668	210.88889
1299.5607	228.34972
1301.0544	235.63013
1302.5483	229.24698
1304.0422	217.55826
1305.536	215.71797
1307.0299	228.52711
1308.5237	236.74562
1310.0176	223.03987
1311.5115	208.86096
1313.0052	239.19301
1314.4991	240.12004
1315.9929	213.03262
1317.4868	237.18875
1318.9807	224.15228
1320.4745	210.23947
1321.9684	216.84563
1323.4622	220.36189
1324.9561	215.98384
1326.45	217.07509
1327.9437	213.4399
1329.4376	214.64478
1330.9315	224.72856
1332.4253	211.78004
1333.9192	221.69797
1335.413	227.50317
1336.9069	217.12216
1338.4008	218.99722
1339.8945	212.45375
1341.3884	205.89651
1342.8822	228.48433
1344.3761	206.35677
1345.87	210.00246
1347.3638	206.66306
1348.8577	216.69174
1350.3514	220.03377
1351.8453	202.26936
1353.3392	204.13271
1354.833	214.40437
1356.3269	196.30841
1357.8207	219.72252
1359.3146	226.2188
1360.8085	219.73892
1362.3022	203.08147
1363.7961	211.53355
1365.29	227.10536
1366.7838	206.63974
1368.2777	204.30615
1369.7715	212.79625
1371.2654	206.25777
1372.7593	197.45996
1374.2531	210.39568
1375.7469	219.28102
1377.2407	218.95583
1378.7346	221.03845
1380.2285	214.66107
1381.7223	218.14868
1383.2162	209.53722
1384.71	212.24283
1386.2039	214.25209
1387.6978	217.95908
1389.1915	211.36549
1390.6854	221.69026
1392.1793	232.99841
1393.6731	240.43567
1395.167	212.47453
1396.6608	210.28406
1398.1547	220.46068
1399.6486	218.49745
1401.1423	219.92824
1402.6362	213.72362
1404.13	204.12143
1405.6239	217.26669
1407.1178	226.44467
1408.6116	229.10406
1410.1055	214.51764
1411.5992	211.78761
1413.0931	209.63786
1414.587	203.02545
1416.0808	222.78758
1417.5747	230.21852
1419.0685	217.6619
1420.5624	215
1422.0563	222.99045
1423.55	233.40419
1425.0439	223.99469
1426.5378	212.6044
1428.0316	211.53944
1429.5255	221.28899
1431.0193	226.92453
1432.5132	217.45438
1434.0071	213.41942
1435.5009	221.00385
1436.9948	226.80133
1438.4885	223.65065
1439.9824	208.77385
1441.4763	198.16115
1442.9701	223.78152
1444.464	217.41388
1445.9578	217.00002
1447.4517	202.73065
1448.9456	200
1450.4393	210.3237
1451.9332	213.31277
1453.4271	222.55838
1454.9209	221.53918
1456.4148	207.32204
1457.9086	201.92889
1459.4025	208.0714
1460.8964	205.37729
1462.3901	191.5946
1463.884	196.08444
1465.3778	222.27103
1466.8717	217.08333
1468.3656	205.43829
1469.8594	206.14015
1471.3533	190.04623
1472.847	209.99432
1474.3409	207.13742
1475.8348	213.34641
1477.3286	199.3924
1478.8225	221.36191
1480.3163	218.58502
1481.8102	200.20117
1483.3041	205.41324
1484.7979	214.12387
1486.2917	203.85378
1487.7856	205.11143
1489.2794	218.37502
1490.7733	219.03835
1492.2671	214.39442
1493.761	216.74429
1495.2549	216.65834
1496.7487	207.96268
1498.2426	203.07159
1499.7363	200.57217
1501.2302	222.25261
1502.7241	215.80005
1504.2179	202.74699
1505.7118	222.81728
1507.2056	210.67157
1508.6995	220.85297
1510.1934	225.44279
1511.6871	214.56088
1513.181	203.48982
1514.6749	218.54973
1516.1687	203.65878
1517.6626	203.68239
1519.1564	215.62997
1520.6503	200.37337
1522.1442	204.71579
1523.6379	214.42165
1525.1318	206.3049
1526.6256	212.72424
1528.1195	215.77684
1529.6134	217.61984
1531.1072	235.50085
1532.6011	224.6277
1534.0948	221.12566
1535.5887	223.06358
1537.0826	205.67897
1538.5764	203.73145
1540.0703	214.16283
1541.5641	219.9209
1543.058	209.58661
1544.5519	207.18442
1546.0457	225.23035
1547.5396	218.05769
1549.0334	223.10965
1550.5272	217.49091
1552.0211	220.70131
1553.5149	205.47525
1555.0088	211.62749
1556.5027	211.63115
1557.9965	207.67999
1559.4904	214.74431
1560.9841	218.06151
1562.478	224.4986
1563.9719	232.13007
1565.4657	221.28535
1566.9596	205.29639
1568.4534	202.58821
1569.9473	212.2215
1571.4412	198.71829
1572.9349	209.32964
1574.4288	213.4574
1575.9227	204.52814
1577.4165	201.90993
1578.9104	212.04663
1580.4042	212.96466
1581.8981	210.06851
1583.392	220.35716
1584.8857	202.85681
1586.3796	206.23827
1587.8734	201.97186
1589.3673	202.608
1590.8612	200.69154
1592.355	197.79286
1593.8489	204.02394
1595.3427	198.97856
1596.8365	210.24263
1598.3304	202.136
1599.8242	192.13925
1601.3181	214.46199
1602.812	217.38519
1604.3058	205.77245
1605.7997	207.80463
1607.2935	203.37363
1608.7874	209.62408
1610.2813	218.1606
1611.775	207.93541
1613.2689	200.20351
1614.7627	185.20515
1616.2566	211.85652
1617.7505	197.74983
1619.2443	200.21593
1620.7382	197.00453
1622.2319	204.85916
1623.7258	212.60732
1625.2197	207.10718
1626.7135	210.15797
1628.2074	235.39305
1629.7012	212.31715
1631.1951	215.58586
1632.689	204.45457
1634.1827	193.54706
1635.6766	215.26141
1637.1705	211.97679
1638.6643	221.61134
1640.1582	208.58881
1641.652	216.6425
1643.1459	221.30975
1644.6398	214.37303
1646.1335	204.64691
1647.6274	219.24063
1649.1212	224.60956
1650.6151	209.07431
1652.109	196.07881
1653.6028	189.82751
1655.0967	198.4854
1656.5905	204.17319
1658.0844	201.88902
1659.5782	207.58704
1661.072	206.09825
1662.5659	202.60103
1664.0598	208.71814
1665.5536	206.46416
1667.0475	200.61082
1668.5413	193.92711
1670.0352	191.66568
1671.5291	199.43982
1673.0228	194.66545
1674.5167	191.68936
1676.0105	217.58238
1677.5044	223.33794
1678.9983	200.78371
1680.4921	187.52756
1681.986	187.89331
1683.4797	217.26773
1684.9736	208.69044
1686.4675	194.8584
1687.9613	213.87383
1689.4552	191.9054
1690.949	189.3329
1692.4429	187.21555
1693.9368	200.34961
1695.4305	208.4501
1696.9244	192.144
1698.4183	196.4306
1699.9121	196.45247
1701.406	182.0538
1702.8998	195.04408
1704.3937	201.25912
1705.8876	201.37387
1707.3813	195.3985
1708.8752	194.55542
1710.369	188.09636
1711.8629	213.24867
1713.3568	192.67464
1714.8506	186.46719
1716.3445	203.88171
1717.8383	192.93167
1719.3322	187.27107
1720.826	197.81802
1722.3198	194.92058
1723.8137	199.30978
1725.3076	192.78845
1726.8014	194.10786
1728.2953	190.25713
1729.7891	191.88663
1731.283	208.22992
1732.7769	188.22382
1734.2706	183.48691
1735.7645	188.44545
1737.2583	197.58186
1738.7522	193.46643
1740.2461	192.79977
1741.7399	193.71733
1743.2338	182.43362
1744.7275	193.40317
1746.2214	194.95088
1747.7153	198.70757
1749.2091	192.10835
1750.703	184.55267
1752.1968	200.08672
1753.6907	190.65437
1755.1846	195.83633
1756.6783	197.89908
1758.1722	202.2002
1759.6661	213.40456
1761.1599	191.99214
1762.6538	202.01459
1764.1476	194.28418
1765.6415	192.85336
1767.1354	204.36832
1768.6292	197.68488
1770.123	179.26109
1771.6168	195.44453
1773.1107	194.70631
1774.6046	192.85153
1776.0984	203.16684
1777.5923	200.81233
1779.0861	199.06459
1780.58	208.39104
1782.0739	201.98024
1783.5676	199.38628
1785.0615	178.97026
1786.5554	201.71463
1788.0492	212.69359
1789.5431	192.86485
1791.0369	200.31384
1792.5308	205.49695
1794.0247	202.56822
1795.5184	204.08444
1797.0123	188.07755
1798.5061	193.64557
1800	203.05286
1801.4939	198.57977
1802.9877	202.22578
1804.4816	198.16833
1805.9753	178.76669
1807.4692	190.38939
1808.9631	196.5365
1810.4569	190.94991
1811.9508	189
1813.4446	199.25905
1814.9385	198.67192
1816.4324	189.8911
1817.9261	187
1819.42	187.68916
1820.9139	181.89458
1822.4077	187.68147
1823.9016	189.37056
1825.3954	191.23944
1826.8893	190.44704
1828.3832	177.69011
1829.877	193.26855
1831.3708	195.42856
1832.8646	182.59689
1834.3585	183.7328
1835.8524	191.66086
1837.3462	205.90143
1838.8401	202.68549
1840.3339	192.3268
1841.8278	180.01172
1843.3217	163.42249
1844.8154	176.22031
1846.3093	187.20717
1847.8032	178.88612
1849.297	185.71918
1850.7909	193.48552
1852.2847	184.02711
1853.7786	182.38797
1855.2725	186.08897
1856.7662	186.83354
1858.2601	192.89116
1859.7539	191.26305
1861.2478	181.92143
1862.7417	179.19063
1864.2355	186.60512
1865.7294	185.65103
1867.2231	186.49516
1868.717	187.70967
1870.2109	181.74466
1871.7047	180.74054
1873.1986	179.88402
1874.6924	185.30275
1876.1863	177.24423
1877.6802	179.82259
1879.174	193.64355
1880.6678	202.28586
1882.1617	199.24437
1883.6555	204.83134
1885.1494	194.338
1886.6432	201.63768
1888.1371	189.39218
1889.631	181.06052
1891.1248	188.22563
1892.6187	193.93936
1894.1124	201.9297
1895.6063	196.61749
1897.1002	194.85672
1898.594	185.01651
1900.0879	171.24174
1901.5817	176.05652
1903.0756	188.64496
1904.5695	197.15396
1906.0632	195.32262
1907.5571	184.77417
1909.051	197.41649
1910.5448	212.16173
1912.0387	203.46106
1913.5325	182.17522
1915.0264	188.23889
1916.5203	187.38148
1918.014	189.14983
1919.5079	191.76961
1921.0017	189.52364
1922.4956	190.2106
1923.9895	194.15071
1925.4833	186.57063
1926.9772	188.20992
1928.4709	194.55
1929.9648	204.79814
1931.4587	201.38591
1932.9525	196.15517
1934.4464	196.10182
1935.9402	198.68697
1937.4341	185.22711
1938.928	178.89908
1940.4218	188.70322
1941.9156	193.57971
1943.4095	196.56586
1944.9033	193.36519
1946.3972	196.66412
1947.891	198.26332
1949.3849	194.0863
1950.8788	189.34494
1952.3726	178.9313
1953.8665	188.01918
1955.3602	191.27132
1956.8541	190.79866
1958.348	183.77481
1959.8418	179.43599
1961.3357	183.46033
1962.8295	175.44626
1964.3234	181.27937
1965.8173	179.5611
1967.311	180.04517
1968.8049	187.46008
1970.2988	189.19176
1971.7926	187.10677
1973.2865	189.64566
1974.7803	180.83307
1976.2742	177.96907
1977.7681	184.76909
1979.2618	176.41911
1980.7557	173.04042
1982.2495	179.32271
1983.7434	190.15353
1985.2373	187.35591
1986.7311	183.64703
1988.225	178.08508
1989.7188	164.98624
1991.2126	174.2406
1992.7065	176.17818
1994.2003	183.09697
1995.6942	185.57832
1997.188	164.05873
1998.6819	197.81064
2000.1758	171.27245
2001.6696	190.3054
2003.1635	180.23924
2004.6573	187.27914
2006.1511	169.5766
2007.645	173.67212
2009.1388	177.63736
2010.6327	174.67371
2012.1266	181.60185
2013.6204	178.71051
2015.1143	193.68369
2016.608	191.57034
2018.1019	186.50052
2019.5958	174.12016
2021.0896	169.28796
2022.5835	185.96114
2024.0773	198.48166
2025.5712	181.513
2027.0651	203.6864
2028.5588	188.90768
2030.0527	153.71106
2031.5466	192.86703
2033.0404	189.24399
2034.5343	194.38763
2036.0281	199.11261
2037.522	189.68471
2039.0159	193.83136
2040.5096	178.95967
2042.0035	192.59023
2043.4973	191.53461
2044.9912	173.56027
2046.4851	193.00169
2047.9789	185.30644
2049.4727	176.00768
2050.9666	185.70357
2052.4604	181.15828
2053.9543	194.13002
2055.4482	191.07274
2056.9419	191.62117
2058.4358	198.3869
2059.9297	195.87206
2061.4236	188.92679
2062.9175	192.40508
2064.4111	189.1732
2065.905	189.33755
2067.3989	196
2068.8928	189.2005
2070.3867	187.05795
2071.8804	195.1602
2073.3743	185.95018
2074.8682	179.41414
2076.3621	182.59044
2077.856	179.94255
2079.3499	181.80035
2080.8435	199.07109
2082.3374	192.76991
2083.8313	181.80119
2085.3252	207.45702
2086.8191	206.82449
2088.3127	173.07094
2089.8066	160.04622
2091.3005	176.90128
2092.7944	180.16243
2094.2883	191.19098
2095.782	172.64194
2097.2759	181.81107
2098.7698	165.26874
2100.2637	185.05577
2101.7576	177.16034
2103.2512	180.09212
2104.7451	190.97527
2106.239	160.11528
2107.7329	162.82401
2109.2268	173.08331
2110.7205	181.86635
2112.2144	177.95917
2113.7083	166.10136
2115.2021	183.15059
2116.696	182.15132
2118.1897	186.08093
2119.6836	179.46349
2121.1775	181.08064
2122.6714	179.0807
2124.1653	180.00188
2125.6589	167.35471
2127.1528	163.30859
2128.6467	177.58432
2130.1406	178.13449
2131.6345	170.94109
2133.1282	161.93195
2134.6221	163.43922
2136.116	178.61838
2137.6099	170.49319
2139.1038	162.65971
2140.5977	158.86449
2142.0913	179.30045
2143.5852	179.75229
2145.0791	181.67633
2146.573	181.38043
2148.0669	180.15938
2149.5605	178.25674
2151.0544	170.77626
2152.5483	174.66626
2154.0422	170.17639
2155.5361	172.98985
2157.0298	182.62904
2158.5237	169.63568
2160.0176	164.73518
2161.5115	174.61453
2163.0054	190.95692
2164.499	178.28899
2165.9929	173.23141
2167.4868	178.17863
2168.9807	170.57924
2170.4746	174.25658
2171.9683	180.42502
2173.4622	179.09744
2174.9561	170.02919
2176.45	170.5883
2177.9438	174.02625
2179.4375	173.05646
2180.9314	189.20642
2182.4253	185.44279
2183.9192	181.96938
2185.4131	196.70453
2186.9067	194.24799
2188.4006	189.51878
2189.8945	179.68001
2191.3884	183.50436
2192.8823	183.30099
2194.376	190.08884
2195.8699	179.92531
2197.3638	180.91972
2198.8577	182.99402
2200.3516	180.45035
2201.8455	167.08916
2203.3391	195.20718
2204.833	205.44289
2206.3269	205.58549
2207.8208	193.20703
2209.3147	186.73746
2210.8083	190.52374
2212.3022	193.83202
2213.7961	185.70474
2215.29	185.76981
2216.7839	188.60614
2218.2776	207.49863
2219.7715	195.61623
2221.2654	189.05379
2222.7593	188.90117
2224.2532	182.37894
2225.7468	189.1086
2227.2407	172.98157
2228.7346	173.04898
2230.2285	191.49249
2231.7224	179.41219
2233.2161	189.7034
2234.71	183.40715
2236.2039	180.02386
2237.6978	176
2239.1917	176.15289
2240.6853	177.28568
2242.1792	170.86165
2243.6731	165.82188
2245.167	173.47777
2246.6609	186.12173
2248.1545	179.62988
2249.6484	176.70316
2251.1423	180.05481
2252.6362	173.87408
2254.1301	169.32729
2255.624	168.58203
2257.1177	184.45178
2258.6116	177.74185
2260.1055	171.3867
2261.5994	178.64589
2263.0933	173.15363
2264.5869	173.49104
2266.0808	159.09033
2267.5747	157
2269.0686	149.24779
2270.5625	173.95122
2272.0562	171.43909
2273.55	177.44785
2275.0439	171.4261
2276.5378	167.10715
2278.0317	179.46075
2279.5254	165.08658
2281.0193	161.93248
2282.5132	173
2284.0071	168.54112
2285.501	170.41951
2286.9946	170.39018
2288.4885	164
2289.9824	169.77785
2291.4763	170.92625
2292.9702	172.96465
2294.4639	163.7211
2295.9578	164.36438
2297.4517	194.39891
2298.9456	143.37642
2300.4395	167.80446
2301.9331	177.5676
2303.427	167.24203
2304.9209	160.58185
2306.4148	162.61777
2307.9087	160.24153
2309.4023	170.30083
2310.8962	170.29323
2312.3901	175.49054
2313.884	185.4579
2315.3779	172.71553
2316.8718	163.94522
2318.3655	167.61667
2319.8594	167.32973
2321.3533	165.55177
2322.8472	164.22273
2324.3411	174.80664
2325.8347	172.57123
2327.3286	173.87857
2328.8225	181.95255
2330.3164	211.55788
2331.8103	202.79124
2333.304	197.96721
2334.7979	183.49966
2336.2917	183.05865
2337.7856	166.02177
2339.2795	166.29372
2340.7732	167.37106
2342.2671	167.45848
2343.761	162.73865
2345.2549	165.11485
2346.7488	174.98895
2348.2424	166.16716
2349.7363	176.0184
2351.2302	177.49117
2352.7241	170.74045
2354.218	157.6194
2355.7117	170.95796
2357.2056	168.17368
2358.6995	181.9558
2360.1934	166.88011
2361.6873	163.22809
2363.1809	174.31813
2364.6748	192.09326
2366.1687	181.27885
2367.6626	173.19266
2369.1565	181.36829
2370.6501	189.06268
2372.144	175.06404
2373.6379	165
2375.1318	183.07787
2376.6257	171.06203
2378.1196	168.90811
2379.6133	169.96939
2381.1072	187.31029
2382.6011	195.23576
2384.095	177.07159
2385.5889	173.30157
2387.0825	183.30521
2388.5764	194.9493
2390.0703	177.24736
2391.5642	167.75072
2393.0581	179.46881
2394.5518	175.42964
2396.0457	179.58592
2397.5396	183.72226
2399.0334	176.13927
2400.5273	180.80182
2402.021	171.94099
2403.5149	194.52113
2405.0088	178.8206
2406.5027	176.53511
2407.9966	189.69873
2409.4902	191.55812
2410.9841	187.61327
2412.478	188.25555
2413.9719	177.36372
2415.4658	183.16608
2416.9595	192.429
2418.4534	175.79375
2419.9473	173.52266
2421.4412	178.86125
2422.9351	190.91351
2424.4287	187.55997
2425.9226	179.19814
2427.4165	186.64256
2428.9104	198.45319
2430.4043	176.20361
2431.8979	168.74344
2433.3918	175.7486
2434.8857	188.31587
2436.3796	183.35974
2437.8735	171.42719
2439.3674	165.2485
2440.8611	166.64882
2442.355	193.22087
2443.8489	172.26364
2445.3428	194.74054
2446.8367	175.37813
2448.3303	178.73671
2449.8242	165.95683
2451.3181	194.61749
2452.812	183.83731
2454.3059	189.69884
2455.7996	187.8802
2457.2935	185.55469
2458.7874	181.8945
2460.2813	177.22971
2461.7751	175.3373
2463.2688	175
2464.7627	183.90529
2466.2566	170.99924
2467.7505	179.52003
2469.2444	158.74081
2470.738	181.02335
2472.2319	167.73094
2473.7258	181.21172
2475.2197	172.9449
2476.7136	179
2478.2073	176.1403
2479.7012	169.68971
2481.1951	182.69147
2482.689	173.72356
2484.1829	180.79695
2485.6765	161.90688
2487.1704	174.75638
2488.6643	169.08369
2490.1582	179.91531
2491.6521	177.8737
2493.1458	171.04683
2494.6396	166.10669
2496.1335	171.03052
2497.6274	185.47072
2499.1213	178.86276
2500.6152	166.10681
2502.1089	171.86732
2503.6028	168.16237
2505.0967	178.07956
2506.5906	173.40562
2508.0845	169.89874
2509.5781	165.89914
2511.072	172.7417
2512.5659	167.25981
2514.0598	161.54643
2515.5537	166.61121
2517.0474	182.00179
2518.5413	177.06485
2520.0352	185.95599
2521.5291	189
2523.0229	180.75615
2524.5166	186.23975
2526.0105	178.12074
2527.5044	160.54956
2528.9983	167.69833
2530.4922	170.19809
2531.9858	187.791
2533.4797	192.4119
2534.9736	182.18271
2536.4675	165.7001
2537.9614	168.02238
2539.4551	160.0927
2540.949	183.55151
2542.4429	181.90218
2543.9368	157.3848
2545.4307	182.97409
2546.9243	168.847
2548.4182	176.55716
2549.9121	199.80423
2551.406	180.80153
2552.8999	177.83923
2554.3936	195.78976
2555.8875	184.04617
2557.3813	169.9938
2558.8752	175.54172
2560.3691	184.39587
2561.863	172.96696
2563.3567	169.51907
2564.8506	168.28528
2566.3445	180.91246
2567.8384	179.045
2569.3323	184.65369
2570.8259	186.22269
2572.3198	173.07437
2573.8137	169.03116
2575.3076	177.12048
2576.8015	187.90135
2578.2952	180.67279
2579.7891	178.51303
2581.283	180.29909
2582.7769	182.22893
2584.2708	187.76974
2585.7644	179.37207
2587.2583	178.33807
2588.7522	177.09369
2590.2461	177.56738
2591.74	186.51868
2593.2336	189.01898
2594.7275	174.41658
2596.2214	176.08064
2597.7153	160.38957
2599.2092	178.7693
2600.7029	192.46762
2602.1968	174.92572
2603.6907	175.71686
2605.1846	177.58067
2606.6785	165.06473
2608.1721	173.46811
2609.666	190.16272
2611.1599	184.3748
2612.6538	180.31737
2614.1477	188.72289
2615.6414	185.3062
2617.1353	180.24451
2618.6292	187.72002
2620.123	182.23062
2621.6169	179.5936
2623.1108	181.15082
2624.6045	196.44502
2626.0984	172.3732
2627.5923	185.97267
2629.0862	189.85179
2630.5801	176.95241
2632.0737	188.04216
2633.5676	185.94405
2635.0615	181.13971
2636.5554	179.25978
2638.0493	175.7047
2639.543	182.4767
2641.0369	195.44859
2642.5308	183.25087
2644.0247	180.70218
2645.5186	178.63182
2647.0122	185.67548
2648.5061	190.63684
2650	186.21222
2651.4939	181.645
2652.9878	179.2774
2654.4814	179.17644
2655.9753	190.59007
2657.4692	179.30977
2658.9631	185.23547
2660.457	185.82448
2661.9507	183.58235
2663.4446	179.87689
2664.9385	185.61356
2666.4324	179.15764
2667.9263	171.92978
2669.4199	174.65941
2670.9138	187.49539
2672.4077	184.94734
2673.9016	180.7453
2675.3955	187.94173
2676.8892	173.33829
2678.3831	180.50648
2679.877	182.29918
2681.3708	174.76923
2682.8647	175.3186
2684.3586	179.31146
2685.8523	191.49843
2687.3462	168.58379
2688.8401	189.04684
2690.334	179.5939
2691.8279	176.29237
2693.3215	179.75221
2694.8154	174.44757
2696.3093	175.63358
2697.8032	192.72516
2699.2971	179.21243
2700.7908	177.45096
2702.2847	193.82172
2703.7786	184.83154
2705.2725	179.18127
2706.7664	187.94705
2708.26	182.51173
2709.7539	182.88618
2711.2478	186.47371
2712.7417	193.21611
2714.2356	174.78732
2715.7292	192.49478
2717.2231	181.37839
2718.717	180.59808
2720.2109	183.75899
2721.7048	178.44693
2723.1985	186.13338
2724.6924	194.56033
2726.1863	182.10526
2727.6802	189.40746
2729.1741	190.1265
2730.6677	189.88063
2732.1616	184.86847
2733.6555	173.62943
2735.1494	170.51695
2736.6433	192.06079
2738.137	177.552
2739.6309	179.04442
2741.1248	180.42397
2742.6187	179.6371
2744.1125	188.85565
2745.6064	182.29431
2747.1001	177.27629
2748.594	180.88434
2750.0879	184.15886
2751.5818	188.64229
2753.0757	186.41513
2754.5693	175.36232
2756.0632	172.85382
2757.5571	179.85706
2759.051	186.14331
2760.5449	189.31276
2762.0386	190.28241
2763.5325	174.12711
2765.0264	183.55867
2766.5203	184.39584
2768.0142	183.50346
2769.5078	187.60603
2771.0017	179.52779
2772.4956	180.65793
2773.9895	187.72397
2775.4834	187.07314
2776.9771	187.58687
2778.4709	176.89232
2779.9648	198.25296
2781.4587	174.24301
2782.9526	176.7554
2784.4463	186.62848
2785.9402	180.49638
2787.4341	180.51758
2788.928	176.07794
2790.4219	174.35855
2791.9155	178.29906
2793.4094	179.30064
2794.9033	174.43332
2796.3972	177.28255
2797.8911	167.49373
2799.3848	168.68924
2800.8787	176.08618
2802.3726	176.46935
2803.8665	181.69766
2805.3604	168.81313
2806.8542	180.65988
2808.3479	182.06725
2809.8418	177.50252
2811.3357	178.14578
2812.8296	178.52164
2814.3235	179.75777
2815.8171	166.67989
2817.311	181.60359
2818.8049	193.50937
2820.2988	178.06364
2821.7927	171.32797
2823.2864	173.37866
2824.7803	181.71162
2826.2742	174.53113
2827.7681	180.26422
2829.262	182.2419
2830.7556	169.63412
2832.2495	175.23111
2833.7434	176.48952
2835.2373	173.39404
2836.7312	181.83128
2838.2249	169.23077
2839.7188	173.08858
2841.2126	168.38776
2842.7065	173.60616
2844.2004	176.87698
2845.6941	175.96555
2847.188	179.06445
2848.6819	180.55978
2850.1758	184.03705
2851.6697	183.49072
2853.1633	171.32574
2854.6572	175.65031
2856.1511	173.89203
2857.645	179.12544
2859.1389	177.20688
2860.6326	169.51445
2862.1265	173.69557
2863.6204	171.2692
2865.1143	177.88057
2866.6082	181.67047
2868.1021	188.6424
2869.5957	178.99785
2871.0896	171.45732
2872.5835	178.58078
2874.0774	176.14845
2875.5713	166.44391
2877.0649	177.28894
2878.5588	174.14864
2880.0527	178.94447
2881.5466	171.17841
2883.0405	173.92328
2884.5342	175.73235
2886.0281	178.91086
2887.522	179.67593
2889.0159	172.07356
2890.5098	173.58908
2892.0034	177.80026
2893.4973	177.79897
2894.9912	180.74394
2896.4851	189.26599
2897.979	184.92563
2899.4727	181.98468
2900.9666	176.04158
2902.4604	175.77522
2903.9543	179.4003
2905.4482	177.49533
2906.9419	175.91721
2908.4358	172.78049
2909.9297	179.20226
2911.4236	163.18636
2912.9175	180.50368
2914.4111	182.35229
2915.905	180.45734
2917.3989	185.54797
2918.8928	179.36069
2920.3867	166.89612
2921.8804	169.28055
2923.3743	173.80806
2924.8682	175.38278
2926.3621	167.98318
2927.856	171.25737
2929.3499	177.44319
2930.8435	177.73776
2932.3374	165.83537
2933.8313	165.58665
2935.3252	173.93938
2936.8191	174.33647
2938.3127	172.43649
2939.8066	160.49593
2941.3005	172.4399
2942.7944	159.35017
2944.2883	183.63864
2945.782	157.3902
2947.2759	172.0891
2948.7698	189.91646
2950.2637	178.772
2951.7576	192.93112
2953.2512	181.41528
2954.7451	175.72966
2956.239	162.72656
2957.7329	172.82256
2959.2268	175.67366
2960.7205	172.38792
2962.2144	169.47057
2963.7083	171.11497
2965.2021	181.53282
2966.696	175.66414
2968.1897	187.61548
2969.6836	182.90619
2971.1775	177.99045
2972.6714	165.88225
2974.1653	176.27052
2975.6589	167.00893
2977.1528	178.20638
2978.6467	186.0302
2980.1406	174.20364
2981.6345	180.06511
2983.1282	180.46484
2984.6221	168.79088
2986.116	184.55734
2987.6099	168.34398
2989.1038	179.25497
2990.5977	170.72432
2992.0913	179.35745
2993.5852	173.57138
2995.0791	184.46083
2996.573	179.75073
2998.0669	174.00732
2999.5605	173.00562
3001.0544	168.44846
3002.5483	172.12372
3004.0422	166.83061
3005.5361	177.28082
3007.0298	177.2988
3008.5237	177.59485
3010.0176	179.28444
3011.5115	179.37482
3013.0054	171.90981
3014.499	175.47028
3015.9929	177.57188
3017.4868	180.93036
3018.9807	189.0667
3020.4746	182.97887
3021.9683	181.11537
3023.4622	169.35576
3024.9561	174.41039
3026.45	178.30991
3027.9438	170.39592
3029.4375	173.00034
3030.9314	174.32872
3032.4253	174.52686
3033.9192	168.58182
3035.4131	189.4129
3036.9067	183.16899
3038.4006	167.73961
3039.8945	171.27881
3041.3884	170.87357
3042.8823	176.03296
3044.376	185.29601
3045.8699	175.38692
3047.3638	170.76222
3048.8577	180.78693
3050.3516	175.87361
3051.8455	179.48299
3053.3391	170.7851
3054.833	165.66541
3056.3269	183.12079
3057.8208	186.16728
3059.3147	175.11694
3060.8083	180.55347
3062.3022	179.9523
3063.7961	170.85149
3065.29	164.17152
3066.7839	183.76991
3068.2776	186.72491
3069.7715	170.86795
3071.2654	165.18153
3072.7593	168.72301
3074.2532	163.33646
3075.7468	187.16252
3077.2407	181.01755
3078.7346	177.46077
3080.2285	161.28831
3081.7224	149.46172
3083.2161	170.31342
3084.71	171.85222
3086.2039	178.23395
3087.6978	170.3681
3089.1917	163.65234
3090.6853	168.84253
3092.1792	179.52068
3093.6731	186.62328
3095.167	177.36514
3096.6609	165.1927
3098.1545	176.82693
3099.6484	178.7608
3101.1423	183.45538
3102.6362	167.53743
3104.1301	186.28745
3105.624	182.39207
3107.1177	176.59958
3108.6116	184.24474
3110.1055	160.22586
3111.5994	171.42862
3113.0933	177.77313
3114.5869	177.78532
3116.0808	177.32376
3117.5747	156.42203
3119.0686	190.90709
3120.5625	182.70808
3122.0562	178.45071
3123.55	180
3125.0439	161.52315
3126.5378	158.64165
3128.0317	180.01392
3129.5254	163.55516
3131.0193	162.33287
3132.5132	175.59636
3134.0071	165.01639
3135.501	168.64317
3136.9946	161.01929
3138.4885	170.07677
3139.9824	173.95528
3141.4763	187.16231
3142.9702	183.6187
3144.4639	170.94043
3145.9578	170.85646
3147.4517	169.18806
3148.9456	174.86897
3150.4395	168.50168
3151.9331	181.06366
3153.427	173.58719
3154.9209	173.87207
3156.4148	182.61137
3157.9087	178.79247
3159.4023	177.42323
3160.8962	169.92871
3162.3901	170.74913
3163.884	188.90675
3165.3779	167.51387
3166.8718	171.57141
3168.3655	167.58376
3169.8594	180.36342
3171.3533	176.33797
3172.8472	173.45029
3174.3411	183.784
3175.8347	173.98677
3177.3286	152.62701
3178.8225	164.09877
3180.3164	178.27455
3181.8103	167.90454
3183.304	173.5443
3184.7979	195.93932
3186.2917	182.58221
3187.7856	180.64314
3189.2795	161.42592
3190.7732	170.22781
3192.2671	169.86606
3193.761	164.04089
3195.2549	184.47144
3196.7488	179.01717
3198.2424	171.71609
3199.7363	178.30214
3201.2302	171.1823
3202.7241	177.65935
3204.218	177.78264
3205.7117	182.89998
3207.2056	169.91661
3208.6995	180.66846
3210.1934	174.26213
3211.6873	171.1427
3213.1809	167.73416
3214.6748	166.25635
3216.1687	173.43782
3217.6626	177.80438
3219.1565	175.58757
3220.6501	168.70291
3222.144	177.48924
3223.6379	195.55859
3225.1318	158.04599
3226.6257	170.99524
3228.1196	171.63499
3229.6133	171
3231.1072	169.70975
3232.6011	185.35577
3234.095	179.12958
3235.5889	175.12914
3237.0825	177.09157
3238.5764	175.97546
3240.0703	174.60561
3241.5642	165.69797
3243.0581	189.47383
3244.5518	183.75804
3246.0457	162.67047
3247.5396	178.71671
3249.0334	170.94563
3250.5273	167.83818
3252.021	169.80986
3253.5149	165
3255.0088	159.5723
3256.5027	173.25076
3257.9966	164.91248
3259.4902	177.38623
3260.9841	172.3338
3262.478	175.86369
3263.9719	176.15942
3265.4658	168.39149
3266.9595	193.36983
3268.4534	177.11186
3269.9473	180.20061
3271.4412	165.59093
3272.9351	170.61862
3274.4287	164.48946
3275.9226	179.15575
3277.4165	168.66505
3278.9104	165.31322
3280.4043	165.59479
3281.8979	180.23845
3283.3918	169.34618
3284.8857	166.45947
3286.3796	181.12003
3287.8735	181.43211
3289.3674	174.28145
3290.8611	186.55913
3292.355	153.86977
3293.8489	182.99049
3295.3428	182.61301
3296.8367	179.39813
3298.3303	169.80969
3299.8242	169
3301.3181	171.95792
3302.812	177.81624
3304.3059	192.3526
3305.7996	180.52345
3307.2935	178.8573
3308.7874	177.09521
3310.2813	169.50395
3311.7751	170.27026
3313.2688	167.58917
3314.7627	157.96648
3316.2566	187.59871
3317.7505	178.35751
3319.2444	168.24371
3320.738	187.05653
3322.2319	178.70322
3323.7258	184.41187
3325.2197	177.38982
3326.7136	162.61436
3328.2073	161.98825
3329.7012	153
3331.1951	169.1813
3332.689	173.06583
3334.1829	175.8148
3335.6765	171.11087
3337.1704	180.32788
3338.6643	165.75233
3340.1582	167.25345
3341.6521	172.46373
3343.1458	175.71455
3344.6396	173.17308
3346.1335	174.83081
3347.6274	177.54001
3349.1213	185.75195
3350.6152	163.41754
3352.1089	163
3353.6028	169.93703
3355.0967	168.70889
3356.5906	182.79942
3358.0845	174.34253
3359.5781	157.84811
3361.072	178.82224
3362.5659	169.11139
3364.0598	171.71596
3365.5537	176.34198
3367.0474	171.59019
3368.5413	160.61221
3370.0352	171.21732
3371.5291	158.14639
3373.0229	170.42317
3374.5166	164.32341
3376.0105	178.84761
3377.5044	150.58446
3378.9983	160.48431
3380.4922	159.84395
3381.9858	167.44295
3383.4797	168.16371
3384.9736	154.08356
3386.4675	162.90189
3387.9614	164.27583
3389.4551	176.62749
3390.949	171.71945
3392.4429	174.21898
3393.9368	177.80907
3395.4307	178.56183
3396.9243	159.19621
3398.4182	167.94527
3399.9121	169.65701
3401.406	162.05809
3402.8999	166.85645
3404.3936	183.79651
3405.8875	168.90532
3407.3813	164
3408.8752	168.35051
3410.3691	180.32932
3411.863	173.92723
3413.3567	166.52945
3414.8506	169.24123
3416.3445	170.60829
3417.8384	162.21967
3419.3323	176.12997
3420.8259	162.11363
3422.3198	172.20297
3423.8137	186.75099
3425.3076	156.91487
3426.8015	165.69205
3428.2952	168.14832
3429.7891	182.86818
3431.283	172.61652
3432.7769	174.82291
3434.2708	172.2204
3435.7644	184.26721
3437.2583	160.90387
3438.7522	171.26973
3440.2461	159.95316
3441.74	171.89922
3443.2336	168.22717
3444.7275	183.51884
3446.2214	169.89178
3447.7153	174.41487
3449.2092	163.58665
3450.7029	167.2281
3452.1968	152.66164
3453.6907	174.75676
3455.1846	171.94104
3456.6785	170.23285
3458.1721	176.30591
3459.666	177.45518
3461.1599	174.3582
3462.6538	161.64989
3464.1477	160.84283
3465.6414	180.43669
3467.1353	157.75037
3468.6292	158.11124
3470.123	159.02554
3471.6169	163.37764
3473.1108	167.78271
3474.6045	154.56076
3476.0984	172.34114
3477.5923	158.31021
3479.0862	179
3480.5801	176.00986
3482.0737	170.48994
3483.5676	165.75565
3485.0615	169.65443
3486.5554	158.76801
3488.0493	173.86865
3489.543	160.64053
3491.0369	155.58611
3492.5308	167.9541
3494.0247	179.57164
3495.5186	175.94543
3497.0122	176.16985
3498.5061	175.00195
3500	159.11726
