100	1617.7457
101.49385	1638.0441
102.9877	1683.296
104.48154	1701.7301
105.9754	1700.0581
107.46925	1691.2921
108.9631	1683.1664
110.45694	1700.5137
111.95079	1683.0786
113.44464	1654.6553
114.93849	1628.89
116.43233	1612.375
117.92619	1669.3107
119.42004	1711.4041
120.91389	1697.6776
122.40773	1662.4579
123.90158	1646.8307
125.39543	1611.0144
126.88928	1649.7562
128.38313	1615.8466
129.87698	1613.9352
131.37082	1670.0342
132.86467	1653.2828
134.35852	1719.2825
135.85237	1735.2679
137.34622	1734.6516
138.84007	1716.0638
140.33392	1668.2806
141.82777	1660.9417
143.32161	1660.7108
144.81546	1733.1552
146.30931	1777.7682
147.80316	1730.38
149.29701	1686.3113
150.79086	1745.1892
152.28471	1722.675
153.77856	1698.4248
155.27242	1724.6216
156.76625	1801.2621
158.2601	1749.798
159.75395	1682.3806
161.2478	1679.9885
162.74165	1719.0742
164.2355	1759.3112
165.72935	1800.1875
167.22321	1812.1586
168.71704	1803.015
170.21089	1777.8759
171.70474	1758.4913
173.19859	1775.5101
174.69244	1813.1534
176.18629	1794.774
177.68015	1817.7338
179.174	1841.0946
180.66783	1829.1027
182.16168	1862.7194
183.65553	1905.7604
185.14938	1872.0682
186.64323	1876.6981
188.13708	1927.6659
189.63094	1944.1311
191.12479	1933.474
192.61862	1869.046
194.11247	1861.4703
195.60632	1898.8732
197.10017	1934.8009
198.59402	1919.1949
200.08788	1903.6039
201.58173	1934.0754
203.07558	1935.0001
204.56943	1928.4375
206.06326	1965.2445
207.55711	1906.8701
209.05096	1962.3188
210.54482	1922.3705
212.03867	1881.2642
213.53252	1890.9521
215.02637	1884.974
216.52022	1945.8745
218.01405	1912.6492
219.5079	1891.4949
221.00175	1907.5734
222.49561	1940.5785
223.98946	1938.1077
225.48331	1886.0583
226.97716	1922.0146
228.47101	1933.1915
229.96484	1907.2869
231.45869	1912.5349
232.95255	1928.1991
234.4464	1946.0365
235.94025	1947.0203
237.4341	1953.1974
238.92795	1966.5677
240.4218	1953.9445
241.91563	1982.8275
243.40948	1918.9677
244.90334	1937.1937
246.39719	1962.8108
247.89104	1919.2129
249.38489	1963.8102
250.87874	1975.4398
252.37259	1987.4348
253.86644	1994.819
255.36028	1981.8516
256.85413	1943.1072
258.34799	1943.9338
259.84183	1951.5969
261.33566	1965.141
262.82953	1941.2017
264.32336	1911.0879
265.81723	1959.6683
267.31107	1967.9431
268.80493	1934.3875
270.29877	1927.0338
271.79263	1929.3651
273.28647	1924.1832
274.7803	1923.3226
276.27417	1984.6165
277.76801	1929.7054
279.26187	1952.066
280.75571	1959.3538
282.24957	1887.0842
283.74341	1920.9696
285.23724	1887.8052
286.73111	1866.4998
288.22495	1904.4259
289.71881	1914.8455
291.21265	1845.8318
292.70651	1907.2322
294.20035	1921.0902
295.69421	1911.9291
297.18805	1909.6503
298.68188	1888.1257
300.17575	1821.8625
301.66959	1807.743
303.16345	1851.807
304.65729	1852.2833
306.15115	1837.3905
307.64499	1819.3599
309.13885	1789.5333
310.63269	1733.0659
312.12653	1827.7701
313.62039	1769.5242
315.11423	1729.402
316.60809	1756.8049
318.10193	1756.8538
319.59579	1646.3037
321.08963	1725.4244
322.58347	1710.7747
324.07733	1689.6913
325.57117	1694.02
327.06503	1677.7427
328.55887	1684.4065
330.05273	1676.6615
331.54657	1635.5836
333.04044	1632.342
334.53427	1639.7563
336.02811	1567.8026
337.52197	1547.7917
339.01581	1548.2778
340.50967	1540.6934
342.00351	1535
343.49738	1541.0153
344.99121	1555.1465
346.48505	1530.1086
347.97891	1518.062
349.47275	1497.6194
350.96661	1492.5149
352.46045	1495.0718
353.95432	1480.7804
355.44815	1494.9822
356.94202	1464.1974
358.43585	1473.3409
359.92969	1461.7469
361.42355	1422.8079
362.91739	1406.2976
364.41125	1471.522
365.90509	1454.4138
367.39896	1445.2303
368.89279	1435.5618
370.38666	1429.1116
371.88049	1425.9648
373.37433	1377.4177
374.86819	1409.3221
376.36203	1413.7498
377.8559	1393.9629
379.34973	1394.5035
380.8436	1437.2787
382.33743	1448.9718
383.83127	1409.5859
385.32513	1416.8878
386.81897	1415.2454
388.31284	1400.6394
389.80667	1387.0812
391.30054	1381.7488
392.79437	1457.2406
394.28824	1414.4617
395.78207	1367.3401
397.27591	1374.9159
398.76978	1414.913
400.26361	1399.1371
401.75748	1375.6277
403.25131	1407.3123
404.74518	1417.8284
406.23901	1407.2059
407.73288	1391.0742
409.22672	1391.4052
410.72055	1457.8768
412.21442	1423.3662
413.70825	1358.8921
415.20212	1354.2603
416.69595	1399.9268
418.18982	1430.4146
419.68365	1416.1133
421.17749	1369.2002
422.67136	1350.516
424.16519	1389.0847
425.65906	1432.6089
427.15289	1429.8729
428.64676	1393.3258
430.14059	1380.6779
431.63446	1421.3767
433.1283	1398.6007
434.62213	1395.7761
436.116	1451.6686
437.60983	1498.5657
439.1037	1421.0076
440.59753	1404.9575
442.0914	1378.6135
443.58524	1423.0806
445.07907	1460.0981
446.57294	1412.0182
448.06677	1457.7734
449.56064	1433.2689
451.05447	1460.3699
452.54834	1454.5103
454.04218	1418.6879
455.53604	1378.9717
457.02988	1357.0732
458.52371	1446.6249
460.01758	1425.8597
461.51141	1413.939
463.00528	1461.4052
464.49911	1499.0813
465.99298	1446.5157
467.48682	1421.1467
468.98068	1419.3182
470.47452	1412.1238
471.96835	1422.8851
473.46222	1428.916
474.95605	1411.7411
476.44992	1389.0776
477.94376	1412.7827
479.43762	1388.8721
480.93146	1385.925
482.42529	1426.0549
483.91916	1445.9885
485.41299	1400.3809
486.90686	1428.6921
488.4007	1382.8695
489.89456	1427.6619
491.3884	1407.5995
492.88226	1384.1768
494.3761	1394.0676
495.86993	1371.7426
497.3638	1360.7134
498.85764	1375.8921
500.3515	1343.9618
501.84534	1341.7457
503.3392	1339.1085
504.83304	1298.041
506.3269	1293.3706
507.82074	1280.6299
509.31458	1283.4503
510.80844	1280.8582
512.30231	1277.1161
513.79614	1286.5325
515.28998	1304.1466
516.78381	1257.3302
518.27771	1257.8453
519.77155	1261.4801
521.26538	1267.9255
522.75922	1278.7758
524.25305	1265.5222
525.74695	1201.9215
527.24078	1259.8678
528.73462	1266.2214
530.22845	1215.0511
531.72229	1246.6012
533.21619	1300.4679
534.71002	1285.0552
536.20386	1243.447
537.69769	1223.8477
539.19159	1279.193
540.68542	1279.7157
542.17926	1235.4884
543.6731	1205.6456
545.16693	1228.2645
546.66083	1259.5176
548.15466	1249.2799
549.6485	1245.01
551.14233	1238.583
552.63623	1230.441
554.13007	1239.2583
555.6239	1269.1874
557.11774	1259.7634
558.61157	1249.5018
560.10547	1223.9351
561.5993	1226.1022
563.09314	1263.4707
564.58698	1275.585
566.08087	1214.2443
567.57471	1210.4149
569.06854	1268.6287
570.56238	1271.5343
572.05621	1220.1432
573.55011	1197.3547
575.04395	1199.8011
576.53778	1160.8516
578.03162	1154.0464
579.52551	1237.1837
581.01935	1210.9733
582.51318	1212.715
584.00702	1230.713
585.50085	1224.6984
586.99475	1197.7396
588.48859	1219.9702
589.98242	1205.3831
591.47626	1228.8488
592.97009	1222.286
594.46399	1199.5767
595.95782	1171.9713
597.45166	1148.4207
598.9455	1207.0298
600.43939	1209.6069
601.93323	1137.9147
603.42706	1186.7843
604.9209	1235.9775
606.41473	1219.3519
607.90863	1198.321
609.40247	1222.7782
610.8963	1149.6763
612.39014	1192.2452
613.88403	1189.3729
615.37787	1194.1968
616.8717	1189.8556
618.36554	1150.5479
619.85938	1203.7483
621.35327	1181.3615
622.84711	1174.3779
624.34094	1186.2643
625.83478	1183.1525
627.32867	1173.064
628.82251	1178.4618
630.31635	1190.0613
631.81018	1179.7173
633.30402	1184.6168
634.79791	1177.3589
636.29175	1184.0826
637.78558	1204.1625
639.27942	1213.407
640.77332	1196.4449
642.26715	1214.5679
643.76099	1166.1301
645.25482	1173.9408
646.74866	1196.371
648.24255	1206.7014
649.73639	1222.2013
651.23022	1256.1016
652.72406	1219.292
654.21796	1194.2322
655.71179	1204.5511
657.20563	1200.3481
658.69946	1218.6663
660.1933	1219.3147
661.68719	1192.3396
663.18103	1259.4276
664.67487	1208.3848
666.1687	1185.6099
667.66254	1161.4497
669.15643	1192.5062
670.65027	1215.6381
672.1441	1195.4688
673.63794	1190.2657
675.13184	1216.5933
676.62567	1122.0592
678.11951	1184.7106
679.61334	1204.75
681.10718	1209.4172
682.60107	1200.0756
684.09491	1165.0985
685.58875	1182.2406
687.08258	1196.9844
688.57648	1196.3846
690.07031	1210.8557
691.56415	1209.3026
693.05798	1181.402
694.55182	1156.4791
696.04572	1176.746
697.53955	1227.1051
699.03339	1232.3156
700.52722	1204.329
702.02112	1229.2769
703.51495	1229.3088
705.00879	1224.3002
706.50262	1244.2086
707.99646	1214.597
709.49036	1211.1152
710.98419	1174.8464
712.47803	1248.3811
713.97186	1251.9232
715.46576	1220.615
716.95959	1230.5425
718.45343	1273.3652
719.94727	1253.4282
721.4411	1245.5931
722.935	1238.5538
724.42883	1257.3059
725.92267	1276.3246
727.4165	1253.7479
728.91034	1242.6373
730.40424	1308.3054
731.89807	1265.7106
733.39191	1307.5525
734.88574	1303.4185
736.37964	1324.4866
737.87347	1316.5178
739.36731	1319.8927
740.86115	1342.9805
742.35498	1311.5295
743.84888	1285.6616
745.34271	1319.7446
746.83655	1291.1464
748.33038	1279.0862
749.82428	1275.4415
751.31812	1283.7963
752.81195	1319.9714
754.30579	1357.8113
755.79962	1253.3815
757.29352	1291.8397
758.78735	1353.8339
760.28119	1302.9888
761.77502	1261.9839
763.26892	1241.8455
764.76276	1222.6354
766.25659	1257.2025
767.75043	1265.0677
769.24426	1271.1941
770.73816	1275.8055
772.23199	1233.0045
773.72583	1232.656
775.21967	1229.4878
776.71356	1193.8698
778.2074	1209.7125
779.70123	1206.9427
781.19507	1160.4409
782.6889	1203.8158
784.1828	1204.3129
785.67664	1209.171
787.17047	1229.7712
788.66431	1236.3075
790.15814	1209.5339
791.65204	1170.8779
793.14587	1168.2423
794.63971	1165.609
796.13354	1186.6196
797.62744	1240.2582
799.12128	1259.3866
800.61511	1239.9377
802.10895	1232.4399
803.60278	1195.1842
805.09668	1234.7723
806.59052	1294.2937
808.08435	1284.0051
809.57819	1243.1766
811.07208	1242.6023
812.56592	1271.2007
814.05975	1277.3873
815.55359	1272.551
817.04742	1276.9553
818.54132	1267.4069
820.03516	1316.469
821.52899	1332.3654
823.02283	1330.968
824.51672	1352.2421
826.01056	1374.5925
827.50439	1345.6404
828.99823	1350.2233
830.49207	1375.8064
831.98596	1340.0848
833.4798	1384.068
834.97363	1378.8361
836.46747	1364.2655
837.96136	1364.9268
839.4552	1366.1179
840.94904	1425.2545
842.44287	1410.2377
843.93671	1409.1305
845.4306	1361.5471
846.92444	1381.6738
848.41827	1395.2273
849.91211	1372.3909
851.40601	1358.7063
852.89984	1380.4828
854.39368	1360.1656
855.88751	1377.8596
857.38135	1384.7949
858.87524	1382.4359
860.36908	1367.845
861.86292	1348.3689
863.35675	1310.089
864.85059	1265.2712
866.34448	1273.338
867.83832	1299.9482
869.33215	1298.1764
870.82599	1276.4536
872.31989	1246.3639
873.81372	1280.0935
875.30756	1287.0129
876.80139	1221.2729
878.29523	1175.9459
879.78912	1232.9767
881.28296	1187.8356
882.77679	1160.3276
884.27063	1193.7102
885.76453	1185.938
887.25836	1164.7512
888.7522	1164.7834
890.24603	1166.3511
891.73987	1152.9565
893.23376	1179.7966
894.7276	1170.0229
896.22144	1091.9773
897.71527	1126.252
899.20917	1150.9807
900.703	1171.4231
902.19684	1178.1158
903.69067	1165.6649
905.18451	1165.502
906.67841	1200.8024
908.17224	1137.2552
909.66608	1198.6683
911.15991	1230.3015
912.65381	1242.3938
914.14764	1242.7385
915.64148	1224.5668
917.13531	1209.8612
918.62915	1228.0488
920.12305	1253.6371
921.61688	1232.5527
923.11072	1296.729
924.60455	1287.7161
926.09839	1286.0907
927.59229	1285.2328
929.08612	1312.8608
930.57996	1303.3322
932.07379	1232.8749
933.56769	1227.3179
935.06152	1230.3893
936.55536	1254.4922
938.04919	1223.3184
939.54303	1196.5271
941.03693	1225.2528
942.53076	1254.2628
944.0246	1238.3282
945.51843	1204.7754
947.01233	1183.335
948.50616	1111.554
950	1135.6927
951.49384	1154.5612
952.98767	1144.5465
954.48157	1078.3533
955.9754	1077.0015
957.46924	1077.6564
958.96307	1033.5847
960.45697	1009.4393
961.95081	1041.5004
963.44464	1048.1896
964.93848	1013.2634
966.43231	1028.6116
967.92621	1021.7145
969.42004	1011.0546
970.91388	997.49658
972.40771	992.82269
973.90161	985.76959
975.39545	962.40576
976.88928	971.46533
978.38312	975.86096
979.87695	1034.2362
981.37085	972.88416
982.86469	959.12042
984.35852	960.60535
985.85236	943.88251
987.34619	928.60687
988.84009	929.79858
990.33392	927.79462
991.82776	928.35852
993.32159	904.10156
994.81549	875.33356
996.30933	947.57892
997.80316	923.23621
999.297	911.72681
1000.7908	921.94568
1002.2847	912.40546
1003.7786	883.23242
1005.2724	869.72858
1006.7662	884.72809
1008.2601	919.8241
1009.754	881.44635
1011.2478	902.53064
1012.7416	923.6673
1014.2355	926.40204
1015.7294	921.49316
1017.2232	908.12537
1018.717	888.35095
1020.2109	890.51825
1021.7048	925.79004
1023.1986	883.63684
1024.6924	935.92883
1026.1863	908.38965
1027.6802	903.87274
1029.174	903.13623
1030.6678	890.99872
1032.1617	892.9472
1033.6555	896.78204
1035.1494	894.68652
1036.6432	965.42328
1038.1371	942.18872
1039.631	924.1073
1041.1248	904.32245
1042.6187	891.20526
1044.1124	909.05664
1045.6063	925.62762
1047.1002	904.30768
1048.594	884.66095
1050.0879	905.42834
1051.5817	921.3703
1053.0756	933.1156
1054.5695	851.60242
1056.0632	940.01245
1057.5571	923.43311
1059.051	887.84198
1060.5448	910.57825
1062.0387	926.24384
1063.5325	914.99011
1065.0264	903.97614
1066.5203	901.15729
1068.014	903.95367
1069.5079	865.1991
1071.0017	884.25372
1072.4956	905.05524
1073.9895	924.37134
1075.4833	904.25446
1076.9772	897.76282
1078.4709	928.69061
1079.9648	909.06573
1081.4587	855.44366
1082.9525	895.88995
1084.4464	932.97742
1085.9402	911.17871
1087.4341	855.72595
1088.928	894.49548
1090.4218	882.42896
1091.9156	890.66541
1093.4095	894.03534
1094.9033	883.44391
1096.3972	869.20667
1097.891	854.19757
1099.3849	858.03076
1100.8788	918.01178
1102.3726	919.09674
1103.8665	838.04175
1105.3602	841.13702
1106.8541	860.11743
1108.348	864.30109
1109.8418	893.32465
1111.3357	868.60199
1112.8295	850.72632
1114.3234	857.52838
1115.8173	820.87341
1117.311	832
1118.8049	833.65417
1120.2988	851.92346
1121.7926	850.18262
1123.2865	868.89337
1124.7803	839.95697
1126.2742	851.33026
1127.7681	848.83502
1129.2618	820.375
1130.7557	835.79816
1132.2495	879.62268
1133.7434	861.47363
1135.2373	866.00861
1136.7311	815.4353
1138.225	864.80707
1139.7188	880.99756
1141.2126	896.42212
1142.7065	908.45105
1144.2003	877.28809
1145.6942	839.94006
1147.188	847.62427
1148.6819	876.93018
1150.1758	880.5874
1151.6696	865.30902
1153.1635	824.38953
1154.6573	875.80353
1156.1511	928.94012
1157.645	898.32367
1159.1388	896.90411
1160.6327	882.65173
1162.1266	879.69055
1163.6204	864.96228
1165.1143	847.30304
1166.608	845.83575
1168.1019	852.42303
1169.5958	854.50488
1171.0896	836.77863
1172.5835	891.89551
1174.0773	866.16333
1175.5712	896.55902
1177.0651	873.14325
1178.5588	891.0108
1180.0527	868.03601
1181.5466	856.74341
1183.0404	846.46045
1184.5343	833.88354
1186.0281	862.33307
1187.522	895.2558
1189.0159	857.84155
1190.5096	831.89612
1192.0035	868.68994
1193.4973	854.38635
1194.9912	842.99707
1196.4851	856.09576
1197.9789	844.78625
1199.4728	868.63489
1200.9666	857.32013
1202.4604	841.9679
1203.9543	855.21191
1205.4481	829.96069
1206.942	799.60052
1208.4359	823.4931
1209.9297	788.59015
1211.4236	835.60461
1212.9174	819.98108
1214.4113	809.80963
1215.9052	816.89899
1217.3989	815.34583
1218.8928	831.83679
1220.3866	818.37994
1221.8805	800.83698
1223.3744	813.51715
1224.8682	822.25446
1226.3621	821.39069
1227.8558	781.48773
1229.3497	810.03333
1230.8436	794.30859
1232.3374	800.34186
1233.8313	768.58557
1235.3251	800.5863
1236.819	780.25238
1238.3129	751.03101
1239.8066	758.51758
1241.3005	796.40448
1242.7944	813.21552
1244.2882	798.80408
1245.7821	799.28442
1247.2759	791.53888
1248.7698	838.20752
1250.2637	771.03876
1251.7574	825.74695
1253.2513	804.57751
1254.7451	789.80371
1256.239	787.72748
1257.7329	814.83362
1259.2267	842.96967
1260.7206	827.48822
1262.2144	821.4184
1263.7083	838.02716
1265.2021	833.98175
1266.6959	856.81476
1268.1898	863.25238
1269.6837	830.45209
1271.1775	878.75159
1272.6714	779.30261
1274.1652	817.40369
1275.6591	861.61951
1277.153	822.7995
1278.6467	827.45319
1280.1406	830.73206
1281.6344	828.12555
1283.1283	850.41272
1284.6222	852.60034
1286.116	828.01617
1287.6099	837.06921
1289.1036	804.00531
1290.5975	835.29718
1292.0914	823.4267
1293.5852	883.04993
1295.0791	844.43823
1296.5729	818.33325
1298.0668	810.17285
1299.5607	796.4411
1301.0544	799.82202
1302.5483	843.26715
1304.0422	853.6748
1305.536	828.42419
1307.0299	826.80182
1308.5237	836.99994
1310.0176	828.97675
1311.5115	803.79083
1313.0052	810.58734
1314.4991	789.24408
1315.9929	827.5401
1317.4868	770.52612
1318.9807	779.01361
1320.4745	780.46277
1321.9684	800.39453
1323.4622	796.23816
1324.9561	790.14746
1326.45	767.56824
1327.9437	760.56494
1329.4376	779.61981
1330.9315	783.10992
1332.4253	788.46173
1333.9192	783.09387
1335.413	809.98944
1336.9069	842.37354
1338.4008	802.05945
1339.8945	743.08368
1341.3884	744.23157
1342.8822	745
1344.3761	724.08081
1345.87	778.59058
1347.3638	749.11096
1348.8577	760.51483
1350.3514	786.53943
1351.8453	760.72137
1353.3392	747.00354
1354.833	758.56696
1356.3269	749.39929
1357.8207	717.35895
1359.3146	743.51544
1360.8085	769.59222
1362.3022	803.61981
1363.7961	764.1767
1365.29	769.99695
1366.7838	803.29816
1368.2777	747.73395
1369.7715	753.80627
1371.2654	760.10309
1372.7593	783.37024
1374.2531	768.61597
1375.7469	763.59491
1377.2407	792.89087
1378.7346	793.45605
1380.2285	800.00964
1381.7223	827.91107
1383.2162	807.61371
1384.71	765.34235
1386.2039	804.18909
1387.6978	806.95325
1389.1915	799.41772
1390.6854	773.16522
1392.1793	790.83002
1393.6731	763.16254
1395.167	772.72345
1396.6608	764.08447
1398.1547	763.28088
1399.6486	790.56042
1401.1423	812.95215
1402.6362	817.87689
1404.13	803.69641
1405.6239	784.22668
1407.1178	790.11066
1408.6116	782.84393
1410.1055	803.67841
1411.5992	804.65479
1413.0931	825.13757
1414.587	791.1308
1416.0808	839.05548
1417.5747	804.68884
1419.0685	809.16992
1420.5624	810.22015
1422.0563	804.91516
1423.55	800.30756
1425.0439	802.71582
1426.5378	803.30219
1428.0316	805.07886
1429.5255	785.89606
1431.0193	773.0415
1432.5132	793.41827
1434.0071	786.32233
1435.5009	764.50098
1436.9948	766.39734
1438.4885	764.32916
1439.9824	744.41479
1441.4763	758.21503
1442.9701	762.95947
1444.464	802.51666
1445.9578	780.07855
1447.4517	761.05188
1448.9456	759.57593
1450.4393	760.73743
1451.9332	774.05719
1453.4271	768.52997
1454.9209	744.37958
1456.4148	729.84937
1457.9086	733.85779
1459.4025	736.92859
1460.8964	716.24841
1462.3901	704.30267
1463.884	728.49963
1465.3778	729.96271
1466.8717	745.83331
1468.3656	690.74316
1469.8594	736.00006
1471.3533	735.85052
1472.847	732.96588
1474.3409	715.82446
1475.8348	744.91864
1477.3286	695.58447
1478.8225	720.29456
1480.3163	759.36487
1481.8102	753.91931
1483.3041	763.44135
1484.7979	747.88342
1486.2917	698.13971
1487.7856	694.35156
1489.2794	715.9444
1490.7733	725.92328
1492.2671	747.83282
1493.761	750.65021
1495.2549	712.27881
1496.7487	707.37549
1498.2426	753.35748
1499.7363	737.79858
1501.2302	730.11414
1502.7241	751.6001
1504.2179	746.75098
1505.7118	740.06085
1507.2056	758.9668
1508.6995	734.67639
1510.1934	746.6319
1511.6871	724.48761
1513.181	756.13531
1514.6749	775.0437
1516.1687	759.41254
1517.6626	748.41797
1519.1564	751.82178
1520.6503	748.83167
1522.1442	761.12152
1523.6379	763.65582
1525.1318	757.26434
1526.6256	757.37048
1528.1195	741.7038
1529.6134	751.3786
1531.1072	770.8075
1532.6011	773.2287
1534.0948	769.68488
1535.5887	749.97217
1537.0826	749.02966
1538.5764	789.27112
1540.0703	764.10437
1541.5641	732.43506
1543.058	796.37372
1544.5519	772.76605
1546.0457	799.51575
1547.5396	734.40387
1549.0334	731.84943
1550.5272	764.28546
1552.0211	755.47076
1553.5149	773.6131
1555.0088	755.47308
1556.5027	750.55328
1557.9965	761.23999
1559.4904	763
1560.9841	761.54614
1562.478	762.23645
1563.9719	748.60028
1565.4657	732.8338
1566.9596	747.67987
1568.4534	751.89838
1569.9473	754.26263
1571.4412	741.63501
1572.9349	705.87726
1574.4288	740.90399
1575.9227	700.82031
1577.4165	699.27942
1578.9104	777.99475
1580.4042	736.97644
1581.8981	735.04572
1583.392	674.74017
1584.8857	719.98657
1586.3796	704.04694
1587.8734	713.57037
1589.3673	715.19598
1590.8612	701.91876
1592.355	689.17145
1593.8489	711.98859
1595.3427	705.62018
1596.8365	714.14795
1598.3304	720.98859
1599.8242	712.73413
1601.3181	710.68274
1602.812	706.95557
1604.3058	703.82935
1605.7997	710.51257
1607.2935	717.84619
1608.7874	722.37494
1610.2813	706.16876
1611.775	687.40765
1613.2689	711.68188
1614.7627	698.4978
1616.2566	704.14349
1617.7505	713.00134
1619.2443	687.62726
1620.7382	695.39478
1622.2319	722.27698
1623.7258	688.89801
1625.2197	715.96429
1626.7135	714.7934
1628.2074	681.7937
1629.7012	707.52478
1631.1951	716.33734
1632.689	756.07684
1634.1827	729.20374
1635.6766	720.67694
1637.1705	740.05804
1638.6643	704.74738
1640.1582	740.74164
1641.652	748.38367
1643.1459	682.87659
1644.6398	692.11096
1646.1335	683.04645
1647.6274	687.0647
1649.1212	715.68561
1650.6151	707.20746
1652.109	724.93054
1653.6028	741.89575
1655.0967	722.65259
1656.5905	699.57751
1658.0844	672.74756
1659.5782	672.41406
1661.072	681.52692
1662.5659	699.87189
1664.0598	733.73328
1665.5536	739.99988
1667.0475	707.33868
1668.5413	699.2478
1670.0352	696.35754
1671.5291	689.599
1673.0228	686.90094
1674.5167	715.21124
1676.0105	689.68884
1677.5044	705.64648
1678.9983	702.95172
1680.4921	700.42438
1681.986	688.18317
1683.4797	698.14478
1684.9736	687.96967
1686.4675	685.79272
1687.9613	686.03943
1689.4552	688.2804
1690.949	680.51337
1692.4429	683.21527
1693.9368	675.73907
1695.4305	665.21173
1696.9244	677.07141
1698.4183	667.39868
1699.9121	667.64435
1701.406	664.86334
1702.8998	657.36072
1704.3937	666.23517
1705.8876	646.81012
1707.3813	645.11597
1708.8752	669.5907
1710.369	665.00751
1711.8629	674.39569
1713.3568	668.96875
1714.8506	667.13507
1716.3445	658.8739
1717.8383	670.24139
1719.3322	652.46051
1720.826	641.49091
1722.3198	655.22534
1723.8137	647.89209
1725.3076	670.92432
1726.8014	673.25397
1728.2953	664.45276
1729.7891	656.07043
1731.283	665.6347
1732.7769	668.7749
1734.2706	653.22748
1735.7645	650.80188
1737.2583	664.21246
1738.7522	656.60876
1740.2461	646.15363
1741.7399	615.08081
1743.2338	644.08575
1744.7275	653.79187
1746.2214	667.02692
1747.7153	677.34204
1749.2091	672.03809
1750.703	674.03308
1752.1968	685.83502
1753.6907	658.19165
1755.1846	652.58502
1756.6783	665.44989
1758.1722	665.64612
1759.6661	655.02551
1761.1599	644.91168
1762.6538	677.97021
1764.1476	668.6709
1765.6415	682.62109
1767.1354	714.26917
1768.6292	693.86963
1770.123	694.87933
1771.6168	684.4314
1773.1107	656.28955
1774.6046	685.84546
1776.0984	682.83759
1777.5923	673.00488
1779.0861	656.25708
1780.58	667.88959
1782.0739	677.93481
1783.5676	641.49536
1785.0615	644.55487
1786.5554	663.44269
1788.0492	662.22119
1789.5431	690.22046
1791.0369	675.52783
1792.5308	677.02051
1794.0247	656.34979
1795.5184	663.56073
1797.0123	674.66766
1798.5061	673.00806
1800	709.04352
1801.4939	717.34161
1802.9877	671.27991
1804.4816	628.78888
1805.9753	647.95355
1807.4692	619.09943
1808.9631	644.33972
1810.4569	651.21869
1811.9508	664.14447
1813.4446	649.21466
1814.9385	661.47632
1816.4324	657.62573
1817.9261	638.29761
1819.42	650.60754
1820.9139	660.35669
1822.4077	628.94531
1823.9016	595.25122
1825.3954	647.54938
1826.8893	639.51428
1828.3832	629.19489
1829.877	614.73145
1831.3708	632.06018
1832.8646	623.78369
1834.3585	637.53796
1835.8524	654.17395
1837.3462	646.55743
1838.8401	632.68549
1840.3339	634.59698
1841.8278	623.77051
1843.3217	616.65997
1844.8154	613.32208
1846.3093	604
1847.8032	594.1394
1849.297	615.69214
1850.7909	645
1852.2847	630.54913
1853.7786	618.45691
1855.2725	604.98938
1856.7662	608.60529
1858.2601	628.63605
1859.7539	634.40814
1861.2478	634.76624
1862.7417	626.27905
1864.2355	644.7724
1865.7294	661.77124
1867.2231	644.0097
1868.717	625.87268
1870.2109	623.54932
1871.7047	638.21619
1873.1986	642.42456
1874.6924	610.48853
1876.1863	619.44226
1877.6802	636.17743
1879.174	642.34143
1880.6678	646.52393
1882.1617	630.57465
1883.6555	631.76978
1885.1494	652.35736
1886.6432	656.6377
1888.1371	657.30389
1889.631	647.26141
1891.1248	628.74371
1892.6187	645.62622
1894.1124	638.79987
1895.6063	637.0376
1897.1002	663.75928
1898.594	660.36365
1900.0879	664.90088
1901.5817	641.6723
1903.0756	630.64496
1904.5695	647.83954
1906.0632	665.98175
1907.5571	661.75482
1909.051	658.09326
1910.5448	657.94513
1912.0387	671
1913.5325	656.95605
1915.0264	643.51379
1916.5203	637.63715
1918.014	627.14673
1919.5079	654.07098
1921.0017	623.02588
1922.4956	622.63184
1923.9895	652
1925.4833	639.43494
1926.9772	629.8761
1928.4709	645
1929.9648	649.00623
1931.4587	649.35065
1932.9525	649.12805
1934.4464	644.59271
1935.9402	624.31299
1937.4341	626.91119
1938.928	612.20184
1940.4218	609.19989
1941.9156	620.98071
1943.4095	618.20978
1944.9033	612.70422
1946.3972	607.6626
1947.891	605.28107
1949.3849	594.62665
1950.8788	598.56329
1952.3726	596.58783
1953.8665	594.03741
1955.3602	575.40698
1956.8541	571.31543
1958.348	578.46948
1959.8418	587.94611
1961.3357	594.4892
1962.8295	593
1964.3234	573.33649
1965.8173	581.21918
1967.311	599.14722
1968.8049	586.4411
1970.2988	583.83557
1971.7926	590.33704
1973.2865	562.51343
1974.7803	562.4715
1976.2742	599.16492
1977.7681	588.23273
1979.2618	574.59283
1980.7557	578.21619
1982.2495	567.26697
1983.7434	571.28949
1985.2373	572.90393
1986.7311	571.94104
1988.225	564.45624
1989.7188	563.33795
1991.2126	565
1992.7065	603.57458
1994.2003	604.20557
1995.6942	578.51819
1997.188	583.99805
1998.6819	577.26367
2000.1758	578.96106
2001.6696	590.08331
2003.1635	559.16766
2004.6573	599.77319
2006.1511	574.32703
2007.645	589.7923
2009.1388	583.71979
2010.6327	581
2012.1266	623.23254
2013.6204	591.53668
2015.1143	616.36737
2016.608	598.85175
2018.1019	575.30237
2019.5958	609.55334
2021.0896	572.1676
2022.5835	598.21082
2024.0773	626.79053
2025.5712	589.14001
2027.0651	592.93182
2028.5588	593.02563
2030.0527	602.39563
2031.5466	572.25745
2033.0404	664.36499
2034.5343	611.25568
2036.0281	589.46887
2037.522	628.51093
2039.0159	620.91827
2040.5096	602.09515
2042.0035	630.24536
2043.4973	599.64618
2044.9912	613.36481
2046.4851	618.39423
2047.9789	626.13373
2049.4727	596.98462
2050.9666	579.36786
2052.4604	610.51575
2053.9543	626.55005
2055.4482	623
2056.9419	615.46417
2058.4358	605.20087
2059.9297	614.26746
2061.4236	604.52209
2062.9175	603.15247
2064.4111	618.44879
2065.905	613.66559
2067.3989	608.7442
2068.8928	601.11456
2070.3867	600.54059
2071.8804	579.24506
2073.3743	570.14526
2074.8682	593.51849
2076.3621	580.56342
2077.856	579.06433
2079.3499	568.36487
2080.8435	577.96844
2082.3374	572.73706
2083.8313	584.59442
2085.3252	592.27747
2086.8191	585.29468
2088.3127	573.02362
2089.8066	546.27728
2091.3005	599.39972
2092.7944	530.91742
2094.2883	573.53741
2095.782	586.54053
2097.2759	549.74976
2098.7698	573.9967
2100.2637	552.073
2101.7576	554.92871
2103.2512	578.60852
2104.7451	529.37695
2106.239	571.74933
2107.7329	579.79761
2109.2268	534.40833
2110.7205	615.89911
2112.2144	553.67389
2113.7083	553.67389
2115.2021	553.67389
2116.696	550.19952
2118.1897	522.18445
2119.6836	531.29272
2121.1775	541.5968
2122.6714	569.97601
2124.1653	574.50653
2125.6589	554.9881
2127.1528	552
2128.6467	544.20667
2130.1406	519.43036
2131.6345	512.26514
2133.1282	535.67981
2134.6221	531.40479
2136.116	520.20227
2137.6099	560.10529
2139.1038	581.68054
2140.5977	560.32245
2142.0913	540.20947
2143.5852	523.25354
2145.0791	540.04352
2146.573	536.28259
2148.0669	549.13104
2149.5605	524.97961
2151.0544	532.73859
2152.5483	529.33374
2154.0422	578.20081
2155.5361	535.15222
2157.0298	583.80023
2158.5237	577.72864
2160.0176	583.48615
2161.5115	533.9801
2163.0054	564.28522
2164.499	543.56274
2165.9929	559.87604
2167.4868	544.89618
2168.9807	535.89624
2170.4746	552.67102
2171.9683	564.09363
2173.4622	551.51233
2174.9561	568.4588
2176.45	574.36456
2177.9438	559.5459
2179.4375	559.69763
2180.9314	557.36798
2182.4253	574.54071
2183.9192	583.93134
2185.4131	581
2186.9067	574.65741
2188.4006	588.29333
2189.8945	592.44666
2191.3884	557.85211
2192.8823	567.83948
2194.376	579.86102
2195.8699	592.07471
2197.3638	569.96338
2198.8577	583.95514
2200.3516	584.20984
2201.8455	563.65692
2203.3391	583.0246
2204.833	567.29529
2206.3269	575.50061
2207.8208	592.12158
2209.3147	560.97711
2210.8083	582.36517
2212.3022	585.43195
2213.7961	584.86993
2215.29	552.43195
2216.7839	597.26208
2218.2776	598.02478
2219.7715	586.84631
2221.2654	582.68353
2222.7593	577.90112
2224.2532	561.47668
2225.7468	582.72711
2227.2407	558.67029
2228.7346	559.31476
2230.2285	571.24622
2231.7224	572.13403
2233.2161	557.48181
2234.71	558.84729
2236.2039	558.00793
2237.6978	621.22388
2239.1917	569.08868
2240.6853	548.73828
2242.1792	559.56793
2243.6731	512.23285
2245.167	529.68701
2246.6609	554.82599
2248.1545	511.57047
2249.6484	501.16672
2251.1423	526.09589
2252.6362	544.24451
2254.1301	558.53986
2255.624	542.13751
2257.1177	538.84906
2258.6116	578.40491
2260.1055	542.61188
2261.5994	540.41455
2263.0933	527.59943
2264.5869	538.60699
2266.0808	499.02509
2267.5747	522.53644
2269.0686	517.2478
2270.5625	517.91034
2272.0562	571.24365
2273.55	541.79749
2275.0439	523.7121
2276.5378	558.22327
2278.0317	522.64624
2279.5254	507.94434
2281.0193	532.0675
2282.5132	529.74408
2284.0071	525.16449
2285.501	511.40878
2286.9946	526.52271
2288.4885	526.66693
2289.9824	512.72827
2291.4763	493.86633
2292.9702	503.56439
2294.4639	529.5578
2295.9578	519.86029
2297.4517	463.54742
2298.9456	508.79822
2300.4395	477.24445
2301.9331	536.74603
2303.427	507.1998
2304.9209	492.18195
2306.4148	502.63046
2307.9087	500.97916
2309.4023	515.97534
2310.8962	501.36102
2312.3901	513.40564
2313.884	518.12103
2315.3779	522.48907
2316.8718	510.16431
2318.3655	499.14999
2319.8594	505.37292
2321.3533	505.37946
2322.8472	506.33179
2324.3411	520.30048
2325.8347	542.48657
2327.3286	508.36789
2328.8225	547.75085
2330.3164	518.75098
2331.8103	572.62622
2333.304	571.77478
2334.7979	538.57153
2336.2917	532.13892
2337.7856	506.93515
2339.2795	509.52454
2340.7732	535.1593
2342.2671	524.83392
2343.761	529.63715
2345.2549	531.72253
2346.7488	544.64825
2348.2424	542.22247
2349.7363	528.31799
2351.2302	545.07074
2352.7241	506.07742
2354.218	522.90417
2355.7117	541.55859
2357.2056	500.96655
2358.6995	518.21619
2360.1934	541.96051
2361.6873	520
2363.1809	515.42615
2364.6748	525.04309
2366.1687	561.27209
2367.6626	548.48529
2369.1565	517.77069
2370.6501	544.27161
2372.144	544.7478
2373.6379	529.09943
2375.1318	557.08179
2376.6257	507.41086
2378.1196	507.89743
2379.6133	510.93878
2381.1072	546.34131
2382.6011	553.84296
2384.095	523.30945
2385.5889	525.86774
2387.0825	531.513
2388.5764	522.27789
2390.0703	506.15714
2391.5642	538.21814
2393.0581	528.159
2394.5518	516.9259
2396.0457	538.14758
2397.5396	527.22113
2399.0334	584.45807
2400.5273	553.53705
2402.021	561.46021
2403.5149	548.29932
2405.0088	526.21088
2406.5027	548.27185
2407.9966	524.81256
2409.4902	558.44189
2410.9841	560.2403
2412.478	551.39441
2413.9719	527.72748
2415.4658	517.12915
2416.9595	533.85699
2418.4534	523.88007
2419.9473	512.0683
2421.4412	551.70148
2422.9351	557.284
2424.4287	505.22635
2425.9226	521.45514
2427.4165	523.59973
2428.9104	536.22485
2430.4043	536.64661
2431.8979	562.53937
2433.3918	556.28119
2434.8857	555.01691
2436.3796	533.00226
2437.8735	543.71844
2439.3674	556.90906
2440.8611	532.45062
2442.355	536.08313
2443.8489	530.9447
2445.3428	516.6286
2446.8367	560.354
2448.3303	561.91772
2449.8242	556.0434
2451.3181	540.28198
2452.812	514.36359
2454.3059	524.18152
2455.7996	515.61285
2457.2935	541.375
2458.7874	547.81427
2460.2813	529.59009
2461.7751	542.59143
2463.2688	534.28278
2464.7627	520.9043
2466.2566	532.23596
2467.7505	536.86908
2469.2444	516.76294
2470.738	510.66458
2472.2319	524.11169
2473.7258	518.23212
2475.2197	509.07346
2476.7136	510.64246
2478.2073	539.77509
2479.7012	542.20715
2481.1951	539.78723
2482.689	518.28827
2484.1829	495.31824
2485.6765	500.55301
2487.1704	533.65094
2488.6643	551.89349
2490.1582	536.7298
2491.6521	518.33386
2493.1458	492.57025
2494.6396	505.98666
2496.1335	528.11688
2497.6274	512.82648
2499.1213	549.70575
2500.6152	529.89417
2502.1089	514.4577
2503.6028	484.29813
2505.0967	494.845
2506.5906	465.97021
2508.0845	518.22278
2509.5781	526.80212
2511.072	510.77493
2512.5659	519.42603
2514.0598	500.77423
2515.5537	501.51718
2517.0474	494.99841
2518.5413	512.29108
2520.0352	511.05872
2521.5291	518.14404
2523.0229	568.16565
2524.5166	533.65656
2526.0105	500.38907
2527.5044	529.34344
2528.9983	533.6983
2530.4922	528.50159
2531.9858	517.31592
2533.4797	539.92725
2534.9736	553.73077
2536.4675	526.78503
2537.9614	493.47147
2539.4551	523.38171
2540.949	511.44849
2542.4429	515.79712
2543.9368	501.25653
2545.4307	508.87253
2546.9243	547.388
2548.4182	541.14764
2549.9121	538.77777
2551.406	537.90625
2552.8999	526.85266
2554.3936	546.68463
2555.8875	522.42181
2557.3813	504.74768
2558.8752	534.16687
2560.3691	518.73688
2561.863	532.05505
2563.3567	533.78729
2564.8506	507.87949
2566.3445	528.9104
2567.8384	529.82715
2569.3323	511.38596
2570.8259	529.40582
2572.3198	513.81445
2573.8137	523.58331
2575.3076	516.69086
2576.8015	513.05829
2578.2952	539.30469
2579.7891	498.03125
2581.283	525.80853
2582.7769	541.6228
2584.2708	524.96112
2585.7644	516.32745
2587.2583	503.39197
2588.7522	520.9129
2590.2461	530.92206
2591.74	516.46704
2593.2336	519.82782
2594.7275	526.60498
2596.2214	519.40228
2597.7153	551.51678
2599.2092	549.33368
2600.7029	518.97827
2602.1968	525.42249
2603.6907	532.82941
2605.1846	527.71167
2606.6785	521.08014
2608.1721	523.62628
2609.666	504.2558
2611.1599	525.16205
2612.6538	502.66171
2614.1477	517.43207
2615.6414	553.85956
2617.1353	525.08875
2618.6292	527.99451
2620.123	527.76324
2621.6169	524.08838
2623.1108	534.94666
2624.6045	543.83832
2626.0984	543.02228
2627.5923	538.68732
2629.0862	525.26141
2630.5801	518.25751
2632.0737	511.24289
2633.5676	515.99023
2635.0615	516.11707
2636.5554	508.40829
2638.0493	522.02985
2639.543	534.62927
2641.0369	528.1181
2642.5308	538.6402
2644.0247	542.77863
2645.5186	553.01398
2647.0122	549.0105
2648.5061	529.08728
2650	515.48553
2651.4939	525.68927
2652.9878	526.90918
2654.4814	524.10248
2655.9753	523.81189
2657.4692	541.0816
2658.9631	509.4133
2660.457	534.02814
2661.9507	522.34106
2663.4446	521.9826
2664.9385	534.70026
2666.4324	530.71454
2667.9263	529.96698
2669.4199	542.43103
2670.9138	554.0166
2672.4077	525.53333
2673.9016	550.88232
2675.3955	531.01447
2676.8892	509.6499
2678.3831	508.83252
2679.877	530.75623
2681.3708	525.0296
2682.8647	514.60272
2684.3586	539.41052
2685.8523	509.35931
2687.3462	511.81857
2688.8401	525.01337
2690.334	525.17969
2691.8279	528.1048
2693.3215	539.13293
2694.8154	536.19873
2696.3093	537.7879
2697.8032	531.67218
2699.2971	521.43475
2700.7908	532.34753
2702.2847	538.40704
2703.7786	504.78815
2705.2725	525.88275
2706.7664	537.93677
2708.26	536.04321
2709.7539	525.94092
2711.2478	518.17688
2712.7417	520.06787
2714.2356	522.06134
2715.7292	533.34589
2717.2231	530.46545
2718.717	557.65234
2720.2109	519.05139
2721.7048	513.73578
2723.1985	524.80811
2724.6924	537.15979
2726.1863	527.81665
2727.6802	537.74823
2729.1741	529.72223
2730.6677	536.37299
2732.1616	545.12006
2733.6555	539.52228
2735.1494	550.815
2736.6433	537.01996
2738.137	522.63599
2739.6309	512.86993
2741.1248	523.62274
2742.6187	512.44489
2744.1125	528.71039
2745.6064	551.26837
2747.1001	531.00726
2748.594	509.97931
2750.0879	533.34528
2751.5818	527.49548
2753.0757	513.99042
2754.5693	536.30066
2756.0632	516.31647
2757.5571	506.42374
2759.051	514.43365
2760.5449	524.73938
2762.0386	513.35126
2763.5325	515.1217
2765.0264	526.62177
2766.5203	515.55811
2768.0142	502.67325
2769.5078	526.39258
2771.0017	521.18732
2772.4956	528.84308
2773.9895	524.35632
2775.4834	520.12378
2776.9771	542.72913
2778.4709	523.67157
2779.9648	530.1994
2781.4587	527.07196
2782.9526	524.54498
2784.4463	512.71637
2785.9402	515.33221
2787.4341	512.3869
2788.928	521.7536
2790.4219	543.19946
2791.9155	507.4614
2793.4094	504.61963
2794.9033	527.71735
2796.3972	525.37262
2797.8911	511.05817
2799.3848	527.93018
2800.8787	516.84137
2802.3726	522.41595
2803.8665	514.42303
2805.3604	523.86523
2806.8542	528.39618
2808.3479	503.8446
2809.8418	503.9653
2811.3357	509.49057
2812.8296	507.99069
2814.3235	533.90186
2815.8171	493.99219
2817.311	520.50635
2818.8049	543.6214
2820.2988	510.7601
2821.7927	508.04428
2823.2864	510.76599
2824.7803	523.80829
2826.2742	513.38446
2827.7681	532.50208
2829.262	511.95462
2830.7556	513.1214
2832.2495	536.28418
2833.7434	517.32281
2835.2373	504.38934
2836.7312	508.29428
2838.2249	524.63837
2839.7188	510.27155
2841.2126	516.7226
2842.7065	512.54388
2844.2004	504.55212
2845.6941	521.79547
2847.188	528.27924
2848.6819	526.89386
2850.1758	502.05872
2851.6697	490.67514
2853.1633	505.27399
2854.6572	512.08014
2856.1511	537.27191
2857.645	519.27722
2859.1389	490.75366
2860.6326	500.8989
2862.1265	514.36664
2863.6204	526.64789
2865.1143	539.2193
2866.6082	524.39032
2868.1021	534.5907
2869.5957	514.00525
2871.0896	525.34949
2872.5835	523.47278
2874.0774	529.10095
2875.5713	508.80832
2877.0649	499.33105
2878.5588	503.51041
2880.0527	511.58322
2881.5466	502.73193
2883.0405	516.43439
2884.5342	518.70972
2886.0281	525.95093
2887.522	504.4519
2889.0159	480.27869
2890.5098	522.89813
2892.0034	518.58472
2893.4973	516.6283
2894.9912	514.45404
2896.4851	520.60858
2897.979	503.9567
2899.4727	500.13721
2900.9666	519.02448
2902.4604	518.92242
2903.9543	513.94867
2905.4482	516.84698
2906.9419	506.23547
2908.4358	523.37207
2909.9297	522.12854
2911.4236	537.88715
2912.9175	531.10352
2914.4111	497.48141
2915.905	516.17859
2917.3989	524.94
2918.8928	503.33044
2920.3867	499.56885
2921.8804	495.30377
2923.3743	500.75577
2924.8682	496.79062
2926.3621	479.42456
2927.856	484.99551
2929.3499	477.7821
2930.8435	508.16345
2932.3374	512.80652
2933.8313	508.65039
2935.3252	506.32739
2936.8191	520.14233
2938.3127	519.83691
2939.8066	507.01233
2941.3005	495.27582
2942.7944	507.70731
2944.2883	513.00452
2945.782	509.84763
2947.2759	498.33826
2948.7698	490.12076
2950.2637	507.21765
2951.7576	501.48862
2953.2512	486.72864
2954.7451	505.21121
2956.239	483.10828
2957.7329	502.58743
2959.2268	512.82971
2960.7205	488.96088
2962.2144	509.34329
2963.7083	489.33148
2965.2021	524.39136
2966.696	490.49835
2968.1897	514.19843
2969.6836	518.24445
2971.1775	508.33444
2972.6714	498.92047
2974.1653	495.28091
2975.6589	507.82623
2977.1528	520.16089
2978.6467	507.60022
2980.1406	491.14398
2981.6345	479.81277
2983.1282	514.65875
2984.6221	500.8324
2986.116	465.5181
2987.6099	512.03455
2989.1038	500.78586
2990.5977	497.15982
2992.0913	501.63824
2993.5852	511.7558
2995.0791	508.54871
2996.573	529.73926
2998.0669	502.35562
2999.5605	500.026
3001.0544	503.99234
3002.5483	511.88406
3004.0422	502.20892
3005.5361	510.65353
3007.0298	506.9353
3008.5237	488.41995
3010.0176	501.26801
3011.5115	500.92639
3013.0054	496.18585
3014.499	488.54562
3015.9929	516.62372
3017.4868	504.99576
3018.9807	504.64465
3020.4746	505.80261
3021.9683	511.46109
3023.4622	505.83762
3024.9561	463.23825
3026.45	494.50345
3027.9438	492.55402
3029.4375	474.33463
3030.9314	501.38818
3032.4253	489.82047
3033.9192	491.86859
3035.4131	498.09628
3036.9067	510.71799
3038.4006	516.32794
3039.8945	502.06686
3041.3884	497.41794
3042.8823	503.47656
3044.376	508.98724
3045.8699	498.04398
3047.3638	518.0863
3048.8577	516.17499
3050.3516	499.11755
3051.8455	490.94278
3053.3391	481.36105
3054.833	523.86859
3056.3269	480.33621
3057.8208	492.84772
3059.3147	500.58322
3060.8083	508.9805
3062.3022	481.30551
3063.7961	497.43695
3065.29	517.85187
3066.7839	500.18698
3068.2776	502.39301
3069.7715	483.44107
3071.2654	508.42416
3072.7593	495.54236
3074.2532	483.47821
3075.7468	507.86121
3077.2407	484.2106
3078.7346	486.36874
3080.2285	484.16336
3081.7224	489.79175
3083.2161	476.27252
3084.71	508.25763
3086.2039	509.29407
3087.6978	509.332
3089.1917	492.01208
3090.6853	497.91864
3092.1792	478.78036
3093.6731	513.42108
3095.167	477.20706
3096.6609	492.12497
3098.1545	485.62106
3099.6484	499.81287
3101.1423	473.90314
3102.6362	488.95172
3104.1301	491.02417
3105.624	482.71695
3107.1177	508.36551
3108.6116	514.17181
3110.1055	469.72333
3111.5994	481.48987
3113.0933	482.87445
3114.5869	461.60733
3116.0808	488.93741
3117.5747	517.526
3119.0686	495.03409
3120.5625	489.12424
3122.0562	475.45071
3123.55	470.72025
3125.0439	488.99524
3126.5378	470.25421
3128.0317	483.65503
3129.5254	497.314
3131.0193	456.21628
3132.5132	507.2059
3134.0071	529.38177
3135.501	487.06894
3136.9946	491.68344
3138.4885	488.15576
3139.9824	485.63446
3141.4763	509.83246
3142.9702	503.96405
3144.4639	504.30212
3145.9578	521.77985
3147.4517	515.28705
3148.9456	514.84753
3150.4395	490.8255
3151.9331	482.39258
3153.427	481.76605
3154.9209	486.9147
3156.4148	493.92252
3157.9087	519.151
3159.4023	498.15353
3160.8962	491.1123
3162.3901	475.03781
3163.884	472.00003
3165.3779	484.31793
3166.8718	498.2858
3168.3655	524.98071
3169.8594	500.32748
3171.3533	479.54211
3172.8472	504.73102
3174.3411	481.26413
3175.8347	511.83759
3177.3286	480.89645
3178.8225	502.26999
3180.3164	507.20908
3181.8103	486.8999
3183.304	472.45358
3184.7979	491.4903
3186.2917	486.97791
3187.7856	522.78693
3189.2795	489.85187
3190.7732	516.36176
3192.2671	481.05582
3193.761	489.45364
3195.2549	493.55429
3196.7488	474.17862
3198.2424	489.86954
3199.7363	501.84271
3201.2302	512.20959
3202.7241	498.61795
3204.218	479.63358
3205.7117	485.89999
3207.2056	474.35699
3208.6995	491.55615
3210.1934	487.12335
3211.6873	498.5304
3213.1809	515.6994
3214.6748	497.74365
3216.1687	489.68652
3217.6626	462.56494
3219.1565	470.97223
3220.6501	500.23434
3222.144	497.15323
3223.6379	464.2583
3225.1318	488.90802
3226.6257	475.47977
3228.1196	488.77756
3229.6133	480.60748
3231.1072	473.3688
3232.6011	488.16345
3234.095	458.04379
3235.5889	525.51654
3237.0825	493.03329
3238.5764	495.46017
3240.0703	491.57544
3241.5642	476.21664
3243.0581	465.12772
3244.5518	482.33392
3246.0457	482.33392
3247.5396	482.33392
3249.0334	491.15759
3250.5273	473.07153
3252.021	474.69315
3253.5149	493.44659
3255.0088	482.33392
3256.5027	484.82477
3257.9966	463
3259.4902	497.71127
3260.9841	505.24329
3262.478	459.95428
3263.9719	466.33963
3265.4658	485.49188
3266.9595	479.62167
3268.4534	478.36597
3269.9473	514.38379
3271.4412	485.64545
3272.9351	484.23724
3274.4287	479.48944
3275.9226	452.61371
3277.4165	483.78577
3278.9104	462.53415
3280.4043	474.3717
3281.8979	478.85504
3283.3918	475.49973
3284.8857	474.91891
3286.3796	484.51987
3287.8735	481.87088
3289.3674	489.21536
3290.8611	447.57748
3292.355	447.33691
3293.8489	502.88599
3295.3428	488.13934
3296.8367	474.99933
3298.3303	460.69211
3299.8242	486.20029
3301.3181	527.53705
3302.812	470.27411
3304.3059	463.2948
3305.7996	478.90143
3307.2935	460.85623
3308.7874	461.74609
3310.2813	456.66931
3311.7751	461.17715
3313.2688	485.45734
3314.7627	477.0405
3316.2566	462.39413
3317.7505	451.39896
3319.2444	459.70728
3320.738	462.65848
3322.2319	476.03253
3323.7258	506.62769
3325.2197	448.37079
3326.7136	471.05151
3328.2073	466.28235
3329.7012	478.97733
3331.1951	490.22946
3332.689	443.61301
3334.1829	496.97119
3335.6765	505.33591
3337.1704	475.55884
3338.6643	472.83282
3340.1582	467.74655
3341.6521	466.53064
3343.1458	470.85144
3344.6396	466.14529
3346.1335	459.25378
3347.6274	492.09457
3349.1213	457.94882
3350.6152	462.84567
3352.1089	471.93771
3353.6028	452.21588
3355.0967	451.24655
3356.5906	487.80521
3358.0845	487.05371
3359.5781	510.02527
3361.072	461.12927
3362.5659	465.88812
3364.0598	468.69647
3365.5537	485.09741
3367.0474	498.29666
3368.5413	430.08313
3370.0352	453.27335
3371.5291	464.85361
3373.0229	488.05896
3374.5166	466.91312
3376.0105	448
3377.5044	459.46286
3378.9983	485.49329
3380.4922	479.02307
3381.9858	492.64722
3383.4797	459.3588
3384.9736	446.97858
3386.4675	480.70566
3387.9614	464.345
3389.4551	461.93793
3390.949	456.81311
3392.4429	473.96002
3393.9368	451.22495
3395.4307	442.93274
3396.9243	497.65662
3398.4182	474.07465
3399.9121	457.22046
3401.406	468.73767
3402.8999	456.2706
3404.3936	476.31229
3405.8875	461.81824
3407.3813	454.21609
3408.8752	420.94507
3410.3691	473.54901
3411.863	467.52487
3413.3567	472.66214
3414.8506	451.49411
3416.3445	463.56683
3417.8384	465.90237
3419.3323	463.23593
3420.8259	468.14774
3422.3198	439.479
3423.8137	447.00159
3425.3076	465.53619
3426.8015	450.69205
3428.2952	469.93927
3429.7891	461.29663
3431.283	449.12329
3432.7769	486.52771
3434.2708	446.21158
3435.7644	438.8793
3437.2583	460.73828
3438.7522	449.80133
3440.2461	488.75854
3441.74	470.24332
3443.2336	444.94635
3444.7275	451.6297
3446.2214	448.58582
3447.7153	467.53775
3449.2092	455.23883
3450.7029	482.57895
3452.1968	462.91727
3453.6907	465.47025
3455.1846	474.94223
3456.6785	449.70529
3458.1721	449.30591
3459.666	475.96045
3461.1599	450.08954
3462.6538	462.16089
3464.1477	438.88321
3465.6414	443.37555
3467.1353	454.00052
3468.6292	454.95569
3470.123	461.11789
3471.6169	453.46677
3473.1108	443.83005
3474.6045	442.93149
3476.0984	457.17056
3477.5923	470.66531
3479.0862	443.46512
3480.5801	454.90286
3482.0737	456.51407
3483.5676	431.99136
3485.0615	466.7785
3486.5554	458
3488.0493	462.44446
3489.543	466.47461
3491.0369	437.52441
3492.5308	482.35706
3494.0247	448.40057
3495.5186	456.91464
3497.0122	442.88907
3498.5061	432.00455
3500	454.25516
