100	285.03464
101.49385	263.11249
102.9877	293.28857
104.48154	297.35559
105.9754	295.30017
107.46925	303.51236
108.9631	305.95004
110.45694	280.5253
111.95079	267.30176
113.44464	272.28189
114.93849	287.81998
116.43233	297.77142
117.92619	310.78531
119.42004	279.9209
120.91389	269.86447
122.40773	278.11963
123.90158	284.17484
125.39543	292.31491
126.88928	266.90237
128.38313	267.51871
129.87698	269.38513
131.37082	264.91013
132.86467	286.01746
134.35852	290.09152
135.85237	286.56223
137.34622	287.14612
138.84007	289.41223
140.33392	283.00177
141.82777	262.61551
143.32161	283.46194
144.81546	285.62646
146.30931	278.31418
147.80316	282.58701
149.29701	311.15009
150.79086	289.03308
152.28471	279.35001
153.77856	283.79712
155.27242	288.40747
156.76625	273.2287
158.2601	262.60913
159.75395	288.03668
161.2478	274.48029
162.74165	264.76208
164.2355	294.4151
165.72935	291.14499
167.22321	296.47003
168.71704	295.00378
170.21089	298.0119
171.70474	304.05444
173.19859	300.39975
174.69244	291.3981
176.18629	302.45908
177.68015	308.51111
179.174	309.9895
180.66783	307.0881
182.16168	280.03067
183.65553	295.5466
185.14938	310.32214
186.64323	310.17505
188.13708	303.95612
189.63094	312.19791
191.12479	302.36063
192.61862	292.51184
194.11247	292.16635
195.60632	287.69434
197.10017	280.90338
198.59402	314.57916
200.08788	293.12125
201.58173	296.20337
203.07558	303.71426
204.56943	304.53436
206.06326	299.8078
207.55711	315.42914
209.05096	298.53052
210.54482	289.19867
212.03867	292.3526
213.53252	303.66217
215.02637	313.6532
216.52022	302.95447
218.01405	288.23233
219.5079	281.50516
221.00175	283.22476
222.49561	288.56207
223.98946	291.85654
225.48331	284.91705
226.97716	290.31924
228.47101	304.53726
229.96484	312.88211
231.45869	300.35373
232.95255	293.75833
234.4464	292.27109
235.94025	311.36557
237.4341	320.95706
238.92795	309.78857
240.4218	304.89206
241.91563	301.59116
243.40948	301
244.90334	301
246.39719	301
247.89104	304.49814
249.38489	323.49323
250.87874	311.95407
252.37259	312.77393
253.86644	303.63132
255.36028	285.79208
256.85413	277.67664
258.34799	298.34378
259.84183	305.31781
261.33566	305.82727
262.82953	309.9556
264.32336	322.02927
265.81723	336.39615
267.31107	316.53668
268.80493	310.39453
270.29877	309
271.79263	308.6236
273.28647	310.85861
274.7803	320.9328
276.27417	292.77084
277.76801	309.99396
279.26187	313.29846
280.75571	300.46051
282.24957	294.22034
283.74341	323.98105
285.23724	303.25327
286.73111	299.65909
288.22495	291.69635
289.71881	293.47946
291.21265	313.07251
292.70651	296.47778
294.20035	298.41806
295.69421	297.09406
297.18805	304.37079
298.68188	306.02631
300.17575	286.74854
301.66959	285.08743
303.16345	312.51309
304.65729	317.53333
306.15115	311.07614
307.64499	303.3277
309.13885	298.12158
310.63269	291.47833
312.12653	289.45673
313.62039	295.63611
315.11423	285.20834
316.60809	268.13553
318.10193	273.60464
319.59579	270.27982
321.08963	284.48331
322.58347	269.96884
324.07733	263.40945
325.57117	273.04001
327.06503	275.25732
328.55887	268.59351
330.05273	279.37073
331.54657	279.45389
333.04044	270.20959
334.53427	260.7421
336.02811	259.63379
337.52197	256.29865
339.01581	281.81503
340.50967	273.38684
342.00351	278.2457
343.49738	285.61575
344.99121	246.33165
346.48505	258.01593
347.97891	257.47107
349.47275	247.41068
350.96661	252.29254
352.46045	264.8443
353.95432	262.24664
355.44815	288.14383
356.94202	255.87032
358.43585	244.16591
359.92969	248.81328
361.42355	254.0182
362.91739	250.0728
364.41125	257.59869
365.90509	263.54242
367.39896	267.51309
368.89279	261.0968
370.38666	249.28517
371.88049	242.16876
373.37433	237.14667
374.86819	228.05992
376.36203	239.65099
377.8559	245.05003
379.34973	242.02483
380.8436	239.34895
382.33743	236
383.83127	236
385.32513	256.9783
386.81897	253.09555
388.31284	242.47359
389.80667	247.57562
391.30054	249.05318
392.79437	223.05048
394.28824	241.66531
395.78207	255.93199
397.27591	253.79646
398.76978	234.91765
400.26361	207.59283
401.75748	252.93234
403.25131	238.60614
404.74518	233.75742
406.23901	242.66489
407.73288	245.28662
409.22672	227.08542
410.72055	251.4864
412.21442	231.71198
413.70825	229.14581
415.20212	237.58005
416.69595	240.02441
418.18982	229.60834
419.68365	232.97334
421.17749	226.31432
422.67136	229.742
424.16519	240.30548
425.65906	244.75198
427.15289	238.18871
428.64676	235.08989
430.14059	236.77629
431.63446	257.4577
433.1283	250.67192
434.62213	234.59534
436.116	230.88196
437.60983	244.35857
439.1037	263.74811
440.59753	233.44995
442.0914	235.11307
443.58524	243.85641
445.07907	244.43791
446.57294	241.29553
448.06677	252.82031
449.56064	233.38567
451.05447	236.97112
452.54834	257.32428
454.04218	260.79901
455.53604	239.75906
457.02988	230.52325
458.52371	247.4198
460.01758	250.53371
461.51141	244.87781
463.00528	235.05309
464.49911	230.12221
465.99298	235
467.48682	235
468.98068	252.65904
470.47452	237.43411
471.96835	232.2043
473.46222	235
474.95605	235.90736
476.44992	239.14841
477.94376	240.84161
479.43762	247.91621
480.93146	248.15312
482.42529	244.2209
483.91916	238.20131
485.41299	234.05745
486.90686	244.89734
488.4007	229.62318
489.89456	233.31943
491.3884	237.65196
492.88226	236.60498
494.3761	233.24759
495.86993	235.06401
497.3638	244.39638
498.85764	229.90253
500.3515	216.99046
501.84534	219.39403
503.3392	224.9451
504.83304	221
506.3269	221.79724
507.82074	237.93561
509.31458	224.42377
510.80844	224.91684
512.30231	228.558
513.79614	234.14394
515.28998	244.85913
516.78381	220.1741
518.27771	236.90689
519.77155	240.69601
521.26538	227.86516
522.75922	223.77577
524.25305	231.75214
525.74695	225.50893
527.24078	229.76968
528.73462	230.80533
530.22845	224.42419
531.72229	229.1532
533.21619	229.40372
534.71002	218.36063
536.20386	226.72992
537.69769	223.32133
539.19159	228.41014
540.68542	221.23149
542.17926	225.10722
543.6731	236.99452
545.16693	236.15695
546.66083	214.9196
548.15466	213.21333
549.6485	221.96982
551.14233	224.39812
552.63623	217.1615
554.13007	207.76015
555.6239	205.82394
557.11774	210.27603
558.61157	222.24788
560.10547	221.81227
561.5993	216.90974
563.09314	210.04124
564.58698	204.40895
566.08087	205.87167
567.57471	221.95119
569.06854	215.10252
570.56238	224.77609
572.05621	223.82692
573.55011	211.81483
575.04395	199.85292
576.53778	199.00969
578.03162	210.99666
579.52551	204.99706
581.01935	231.87572
582.51318	223.57066
584.00702	213.28455
585.50085	214.70872
586.99475	206.44513
588.48859	221.00175
589.98242	221.85983
591.47626	205.48553
592.97009	201.30537
594.46399	199.95987
595.95782	205.06018
597.45166	225.48976
598.9455	216.93062
600.43939	210.91739
601.93323	210
603.42706	207.06262
604.9209	201.87144
606.41473	198.61305
607.90863	201.49654
609.40247	208.42494
610.8963	189.50443
612.39014	192.97089
613.88403	191.9666
615.37787	198.86513
616.8717	216.51068
618.36554	225.44513
619.85938	198.58865
621.35327	227.00282
622.84711	226.1483
624.34094	219.94695
625.83478	211.08316
627.32867	203.93605
628.82251	201.78363
630.31635	202.87743
631.81018	223.56544
633.30402	214.56882
634.79791	231.94101
636.29175	227.75092
637.78558	217.34518
639.27942	221.50716
640.77332	222.88359
642.26715	222.02057
643.76099	217.78709
645.25482	200.76508
646.74866	204.24734
648.24255	202.47696
649.73639	193.85545
651.23022	204.28343
652.72406	211.43947
654.21796	226.9938
655.71179	206.41479
657.20563	213.83167
658.69946	217.68716
660.1933	206.78479
661.68719	200.40038
663.18103	212.53502
664.67487	207.34421
666.1687	206.19208
667.66254	198.58437
669.15643	204.7215
670.65027	208.53638
672.1441	204.98802
673.63794	212.72481
675.13184	211.05969
676.62567	224.93626
678.11951	215.93597
679.61334	205.95831
681.10718	200.5874
682.60107	206.42946
684.09491	221.81972
685.58875	224.19724
687.08258	214.65717
688.57648	199.46144
690.07031	206.80415
691.56415	216.34871
693.05798	227.00331
694.55182	231.40112
696.04572	215.22115
697.53955	205.14011
699.03339	212.08748
700.52722	212.99998
702.02112	206.14464
703.51495	215.7941
705.00879	231.44888
706.50262	235.15677
707.99646	237.58954
709.49036	225.40332
710.98419	219.11453
712.47803	223.6907
713.97186	223.67387
715.46576	218.83932
716.95959	222.40681
718.45343	235.10326
719.94727	223.06354
721.4411	223.93408
722.935	224.80579
724.42883	225
725.92267	216.7724
727.4165	224.28571
728.91034	237.58075
730.40424	223.80453
731.89807	232.35852
733.39191	216.66783
734.88574	215.78015
736.37964	221.21924
737.87347	228.20148
739.36731	237.17464
740.86115	241.47963
742.35498	229.54848
743.84888	215.10179
745.34271	220.34531
746.83655	239.33688
748.33038	224.58569
749.82428	217.09348
751.31812	231.02513
752.81195	244.40117
754.30579	237.26758
755.79962	238.76588
757.29352	215.16655
758.78735	227.15572
760.28119	237.69818
761.77502	236.42775
763.26892	232.76619
764.76276	231.67291
766.25659	229.00821
767.75043	254.76781
769.24426	233.76315
770.73816	246.98331
772.23199	236.69722
773.72583	221.83598
775.21967	216.38991
776.71356	224.20375
778.2074	244.28743
779.70123	245.56114
781.19507	226.25845
782.6889	220.90059
784.1828	231.08008
785.67664	232.76659
787.17047	233.47847
788.66431	240.28491
790.15814	237.75392
791.65204	221.93581
793.14587	242.14279
794.63971	239.21793
796.13354	232.59509
797.62744	233.32756
799.12128	239.90337
800.61511	242.18661
802.10895	235.6176
803.60278	233.50468
805.09668	227.34651
806.59052	230.32137
808.08435	250.15685
809.57819	247.98151
811.07208	248.98343
812.56592	254.84949
814.05975	252.45567
815.55359	261.90625
817.04742	245.16983
818.54132	251.10469
820.03516	227.89549
821.52899	243.47993
823.02283	254.93581
824.51672	251.80846
826.01056	256.67764
827.50439	270.15695
828.99823	250.71707
830.49207	265.71414
831.98596	268.6134
833.4798	256.59451
834.97363	252.14369
836.46747	254.81639
837.96136	264.06412
839.4552	272.29404
840.94904	253.64276
842.44287	267.77628
843.93671	281.04352
845.4306	259.65015
846.92444	250.72594
848.41827	244.7901
849.91211	241.62041
851.40601	245.15744
852.89984	244.17775
854.39368	229.14737
855.88751	276.9212
857.38135	262.61569
858.87524	259
860.36908	244.64911
861.86292	239.83229
863.35675	249.0551
864.85059	258.54221
866.34448	261.38205
867.83832	233.1291
869.33215	237.55916
870.82599	232.41391
872.31989	235.10602
873.81372	242.70802
875.30756	239.68147
876.80139	232.37662
878.29523	229.91695
879.78912	213.82674
881.28296	219.91515
882.77679	205.71745
884.27063	215.71603
885.76453	235.05513
887.25836	240.77293
888.7522	232.77415
890.24603	219.34276
891.73987	210.65218
893.23376	222.18784
894.7276	239.95824
896.22144	223.15417
897.71527	225.6581
899.20917	223.00642
900.703	217.6716
902.19684	220.77213
903.69067	231.00085
905.18451	231.41878
906.67841	212.45543
908.17224	215.98891
909.66608	213.31877
911.15991	231.81404
912.65381	231.60608
914.14764	221.65028
915.64148	205.9575
917.13531	207.88905
918.62915	232.57124
920.12305	228.12935
921.61688	228.78433
923.11072	219.87097
924.60455	233.47942
926.09839	241.18129
927.59229	239.46567
929.08612	241.81012
930.57996	244.01521
932.07379	237.93741
933.56769	238.33708
935.06152	253.68445
936.55536	213.513
938.04919	225.24583
939.54303	218.49471
941.03693	216.87514
942.53076	218.51877
944.0246	213.22902
945.51843	207.44933
947.01233	214.60559
948.50616	219.95949
950	210.12514
951.49384	216.18704
952.98767	217
954.48157	205.54845
955.9754	201.70596
957.46924	196.96809
958.96307	195.75267
960.45697	201.92613
961.95081	191.05026
963.44464	198.06767
964.93848	218.66516
966.43231	203.22711
967.92621	191.91856
969.42004	199.10245
970.91388	190.21689
972.40771	181.24744
973.90161	192.14966
975.39545	199.71945
976.88928	187.4183
978.38312	182.96027
979.87695	180.26604
981.37085	188.08624
982.86469	187.17279
984.35852	185.39465
985.85236	180.97235
987.34619	181.41885
988.84009	188.60069
990.33392	188.41071
991.82776	182.97832
993.32159	191.96237
994.81549	168.70851
996.30933	175.54681
997.80316	176.61067
999.297	168.27318
1000.7908	167.45111
1002.2847	168.84444
1003.7786	171.35609
1005.2724	185.88159
1006.7662	174.24271
1008.2601	185.94138
1009.754	157.3089
1011.2478	170.7545
1012.7416	168.01558
1014.2355	172.79556
1015.7294	179.00273
1017.2232	182.81935
1018.717	182.43869
1020.2109	174.06241
1021.7048	182.10854
1023.1986	182.86824
1024.6924	172.04921
1026.1863	175.07629
1027.6802	179.5909
1029.174	159.25572
1030.6678	165.38326
1032.1617	181.71994
1033.6555	180
1035.1494	184.67764
1036.6432	196.56087
1038.1371	174.63492
1039.631	166.49828
1041.1248	171.94286
1042.6187	181.28786
1044.1124	174.12967
1045.6063	174.62764
1047.1002	180.4014
1048.594	174.56848
1050.0879	167.25862
1051.5817	178.45064
1053.0756	166.12396
1054.5695	157.06694
1056.0632	192.96461
1057.5571	186.53426
1059.051	166.93184
1060.5448	171.7319
1062.0387	173.76714
1063.5325	180.59053
1065.0264	186.5925
1066.5203	171.40013
1068.014	177.0526
1069.5079	150.25621
1071.0017	170.21812
1072.4956	166.64017
1073.9895	169.89793
1075.4833	182.68541
1076.9772	183.23721
1078.4709	180.50346
1079.9648	177.29466
1081.4587	170.39957
1082.9525	166.31404
1084.4464	165.78607
1085.9402	176.76874
1087.4341	172.22343
1088.928	192.74771
1090.4218	168.91724
1091.9156	174.66541
1093.4095	172.10605
1094.9033	175.05934
1096.3972	171.58572
1097.891	159.18283
1099.3849	168.595
1100.8788	164
1102.3726	163.61435
1103.8665	157.23923
1105.3602	164.01373
1106.8541	165.78772
1108.348	176.48334
1109.8418	167.55954
1111.3357	161.09148
1112.8295	160.39284
1114.3234	165.3116
1115.8173	179.96709
1117.311	173.59288
1118.8049	156.75189
1120.2988	154.01147
1121.7926	156.72607
1123.2865	163.57159
1124.7803	158.39139
1126.2742	165.72092
1127.7681	171
1129.2618	171
1130.7557	164.39575
1132.2495	154.30249
1133.7434	157.82231
1135.2373	167.47597
1136.7311	164.22551
1138.225	168.79695
1139.7188	154.12759
1141.2126	163.05353
1142.7065	164.59149
1144.2003	172.05812
1145.6942	170.57602
1147.188	168.60405
1148.6819	177.02898
1150.1758	178.06706
1151.6696	160.22588
1153.1635	152.30885
1154.6573	177.53357
1156.1511	163.79135
1157.645	175.08893
1159.1388	182.46576
1160.6327	176.32585
1162.1266	169.30943
1163.6204	171.79187
1165.1143	173.30307
1166.608	166.32849
1168.1019	162.28204
1169.5958	169.82674
1171.0896	175.05534
1172.5835	160.84222
1174.0773	157.16618
1175.5712	156.12335
1177.0651	166.34677
1178.5588	171.14378
1180.0527	162.49113
1181.5466	161.4248
1183.0404	171.14326
1184.5343	168.5863
1186.0281	163.66653
1187.522	180.8239
1189.0159	165.33107
1190.5096	156.86887
1192.0035	167.90698
1193.4973	171.65341
1194.9912	159.49637
1196.4851	162.28351
1197.9789	168.72902
1199.4728	164.43427
1200.9666	165.70601
1202.4604	169.23907
1203.9543	166.63824
1205.4481	163.1624
1206.942	157.23251
1208.4359	159.95091
1209.9297	146.25394
1211.4236	150.86319
1212.9174	149.20853
1214.4113	155.55229
1215.9052	150.32578
1217.3989	160.63283
1218.8928	156.4043
1220.3866	152.58347
1221.8805	152.51691
1223.3744	156.99014
1224.8682	170.73096
1226.3621	161.26843
1227.8558	149.11188
1229.3497	163.34119
1230.8436	168.8911
1232.3374	175.34184
1233.8313	140.26099
1235.3251	148.13188
1236.819	150.27104
1238.3129	164.79102
1239.8066	163.81068
1241.3005	151.24654
1242.7944	154.16261
1244.2882	164
1245.7821	166.38147
1247.2759	173.83533
1248.7698	171.27924
1250.2637	154.42255
1251.7574	176.67671
1253.2513	154.44977
1254.7451	162.99609
1256.239	144.90446
1257.7329	159.90668
1259.2267	171.41794
1260.7206	162.83621
1262.2144	156.75414
1263.7083	153.49513
1265.2021	150.79926
1266.6959	169.69275
1268.1898	179.61342
1269.6837	182.83511
1271.1775	180.75499
1272.6714	161.23697
1274.1652	162.61198
1275.6591	158.19751
1277.153	169.41527
1278.6467	175.32077
1280.1406	169.50375
1281.6344	160.83253
1283.1283	159.70876
1284.6222	156.8858
1286.116	149.19104
1287.6099	156.68376
1289.1036	160.7968
1290.5975	144.72498
1292.0914	175.46916
1293.5852	162.42657
1295.0791	157.49313
1296.5729	167.00005
1298.0668	153.69133
1299.5607	162.9543
1301.0544	177.19191
1302.5483	173.55872
1304.0422	166.50449
1305.536	167.71562
1307.0299	170.36263
1308.5237	173.07097
1310.0176	172.72758
1311.5115	159.07013
1313.0052	178.26288
1314.4991	161.81793
1315.9929	156.21364
1317.4868	165.89558
1318.9807	185.35001
1320.4745	165.94174
1321.9684	161.10977
1323.4622	165.82855
1324.9561	168.57373
1326.45	162.88736
1327.9437	153.44231
1329.4376	148.23965
1330.9315	153.00685
1332.4253	165.74727
1333.9192	166.32063
1335.413	169.00633
1336.9069	149.09944
1338.4008	165.9751
1339.8945	155.71303
1341.3884	173.31046
1342.8822	153.32547
1344.3761	151.73557
1345.87	159.15906
1347.3638	155.15291
1348.8577	167.25217
1350.3514	163.0638
1351.8453	152.98451
1353.3392	165.00177
1354.833	167.49284
1356.3269	164.26813
1357.8207	166.21523
1359.3146	148.08322
1360.8085	162.21017
1362.3022	165.04526
1363.7961	169.74086
1365.29	164.6687
1366.7838	165.65631
1368.2777	159.08156
1369.7715	151.33
1371.2654	149
1372.7593	155.49005
1374.2531	157.87646
1375.7469	156.47189
1377.2407	153.28313
1378.7346	147.6456
1380.2285	152.02646
1381.7223	164.23761
1383.2162	160.70221
1384.71	142.57841
1386.2039	154.81932
1387.6978	166.98247
1389.1915	164.15663
1390.6854	164
1392.1793	154.83479
1393.6731	147.56433
1395.167	153.92146
1396.6608	164.29462
1398.1547	169.82022
1399.6486	163.29645
1401.1423	154.52991
1402.6362	157.26131
1404.13	167.06071
1405.6239	165.46661
1407.1178	156.61771
1408.6116	169.86577
1410.1055	171.39212
1411.5992	162.15048
1413.0931	154.53439
1414.587	146.0327
1416.0808	172.38345
1417.5747	154.45605
1419.0685	164.50447
1420.5624	163.10063
1422.0563	162
1423.55	165.36554
1425.0439	159.56839
1426.5378	158.3956
1428.0316	161.51315
1429.5255	159.69751
1431.0193	159.85283
1432.5132	161.51807
1434.0071	155.48787
1435.5009	154.25432
1436.9948	161.79468
1438.4885	165.44051
1439.9824	167.43408
1441.4763	161.22589
1442.9701	144.14563
1444.464	163.75836
1445.9578	157.87959
1447.4517	168.75124
1448.9456	158.39233
1450.4393	152.78778
1451.9332	147.87668
1453.4271	147.91168
1454.9209	146.06326
1456.4148	150.98964
1457.9086	162.36963
1459.4025	164.48984
1460.8964	165.45399
1462.3901	168.89192
1463.884	163.66713
1465.3778	167.46724
1466.8717	145.75
1468.3656	153.87657
1469.8594	157.04225
1471.3533	139.89677
1472.847	156.97537
1474.3409	144.59543
1475.8348	176.63857
1477.3286	146.48843
1478.8225	148.30858
1480.3163	154.58998
1481.8102	171.0807
1483.3041	170.28635
1484.7979	155.75409
1486.2917	156.51909
1487.7856	156.14601
1489.2794	159.26389
1490.7733	157.87578
1492.2671	154.46628
1493.761	165.86028
1495.2549	154.22806
1496.7487	143.85269
1498.2426	151.78574
1499.7363	154.55614
1501.2302	167.3911
1502.7241	137.3199
1504.2179	163.92886
1505.7118	162.01741
1507.2056	157.2583
1508.6995	160.61766
1510.1934	157.55721
1511.6871	152.9146
1513.181	141.16887
1514.6749	178.21814
1516.1687	174.41248
1517.6626	164.06352
1519.1564	163
1520.6503	161.87848
1522.1442	161
1523.6379	161.47658
1525.1318	159.3902
1526.6256	163.48004
1528.1195	166.55367
1529.6134	154.4135
1531.1072	163.34583
1532.6011	164.71283
1534.0948	156.24956
1535.5887	155.49597
1537.0826	167.75267
1538.5764	148.9335
1540.0703	148.32568
1541.5641	159.8418
1543.058	164.73337
1544.5519	167.72339
1546.0457	163.65944
1547.5396	164.65704
1549.0334	151.57062
1550.5272	154.75818
1552.0211	145.59738
1553.5149	165.93907
1555.0088	159.55664
1556.5027	154.97777
1557.9965	162.91997
1559.4904	167.56664
1560.9841	166.09225
1562.478	161.65811
1563.9719	163.27995
1565.4657	161.28534
1566.9596	152.35181
1568.4534	157
1569.9473	157
1571.4412	158.58568
1572.9349	163.05026
1574.4288	157.61165
1575.9227	151.76949
1577.4165	164.17279
1578.9104	154.86009
1580.4042	151.90575
1581.8981	144.18269
1583.392	145.88312
1584.8857	155.97874
1586.3796	150.01566
1587.8734	163.2464
1589.3673	150.72392
1590.8612	164.69818
1592.355	160.43576
1593.8489	163.32155
1595.3427	154.63629
1596.8365	159.79686
1598.3304	163.59085
1599.8242	158.01262
1601.3181	151.24416
1602.812	153.54074
1604.3058	157.11378
1605.7997	160.70796
1607.2935	159.0549
1608.7874	149.7496
1610.2813	151.53458
1611.775	146.42986
1613.2689	152.3206
1614.7627	150.24016
1616.2566	154.60114
1617.7505	146.37492
1619.2443	151.44991
1620.7382	168.24208
1622.2319	154.56807
1623.7258	141.98172
1625.2197	155.14262
1626.7135	132.11545
1628.2074	150.55646
1629.7012	163.31508
1631.1951	171.33737
1632.689	168.44756
1634.1827	158.54706
1635.6766	143.70776
1637.1705	158.65106
1638.6643	133.58461
1640.1582	144.39505
1641.652	159.61632
1643.1459	156.78766
1644.6398	155.98811
1646.1335	149.3763
1647.6274	152.29626
1649.1212	166.29518
1650.6151	163.17575
1652.109	153.91252
1653.6028	158.78647
1655.0967	164.42725
1656.5905	159.73506
1658.0844	147.59761
1659.5782	153.15184
1661.072	171.18625
1662.5659	162.80521
1664.0598	153.60403
1665.5536	153.96677
1667.0475	149.49602
1668.5413	150.07651
1670.0352	154.94814
1671.5291	155.03458
1673.0228	156.30161
1674.5167	146.65973
1676.0105	169.10851
1677.5044	144.42572
1678.9983	165.45035
1680.4921	150.89261
1681.986	154.88161
1683.4797	159.20206
1684.9736	147.66315
1686.4675	151.81706
1687.9613	142.53093
1689.4552	150.18695
1690.949	151.68202
1692.4429	148.35977
1693.9368	135.24878
1695.4305	151.47075
1696.9244	145.98088
1698.4183	145.25616
1699.9121	142.70248
1701.406	147.75215
1702.8998	148.68358
1704.3937	151.4281
1705.8876	140.51828
1707.3813	139.76479
1708.8752	148.16838
1710.369	157.58749
1711.8629	153.60834
1713.3568	154.73141
1714.8506	147.74301
1716.3445	139.57378
1717.8383	144.88193
1719.3322	149.35472
1720.826	148.55919
1722.3198	144.41177
1723.8137	141.9268
1725.3076	143.13843
1726.8014	142.75786
1728.2953	143.12822
1729.7891	140.12747
1731.283	143.40074
1732.7769	137.68387
1734.2706	137.65501
1735.7645	141.69299
1737.2583	146.32175
1738.7522	140.76367
1740.2461	139.91003
1741.7399	145.89865
1743.2338	139.60289
1744.7275	139.19662
1746.2214	137.62019
1747.7153	154.62631
1749.2091	160.57777
1750.703	150.59984
1752.1968	149.01463
1753.6907	153.13564
1755.1846	151.89272
1756.6783	155.38077
1758.1722	147.08223
1759.6661	136.57083
1761.1599	146.55923
1762.6538	144.75542
1764.1476	144.81873
1765.6415	137.49814
1767.1354	150.10983
1768.6292	141.68962
1770.123	139.03409
1771.6168	141.66078
1773.1107	151.50008
1774.6046	155.91951
1776.0984	148.48051
1777.5923	141.82425
1779.0861	137.00345
1780.58	145.90804
1782.0739	156.8261
1783.5676	156.13914
1785.0615	148.21037
1786.5554	143.8708
1788.0492	142.79219
1789.5431	151.97728
1791.0369	142.84154
1792.5308	156.7924
1794.0247	134.29164
1795.5184	133.64441
1797.0123	138.69154
1798.5061	147.79503
1800	142.52757
1801.4939	134.06854
1802.9877	136.746
1804.4816	132.16833
1805.9753	138.13477
1807.4692	147.02403
1808.9631	150.53651
1810.4569	153.26878
1811.9508	144.32219
1813.4446	135.13768
1814.9385	138.77078
1816.4324	151.66338
1817.9261	139.89738
1819.42	135.0675
1820.9139	144.14056
1822.4077	145.99658
1823.9016	150.91626
1825.3954	150.11269
1826.8893	158.85011
1828.3832	156.83174
1829.877	148.90715
1831.3708	139.69173
1832.8646	141.00346
1834.3585	147.36639
1835.8524	137.93047
1837.3462	140.32767
1838.8401	134.98831
1840.3339	131.69284
1841.8278	141.94473
1843.3217	143.29375
1844.8154	147.40677
1846.3093	144.57407
1847.8032	140.11388
1849.297	149.13843
1850.7909	153.48552
1852.2847	157.97966
1853.7786	163.01724
1855.2725	157.63347
1856.7662	145.8121
1858.2601	136.58162
1859.7539	135.46712
1861.2478	142.46364
1862.7417	147.26517
1864.2355	141.74681
1865.7294	150.58942
1867.2231	153.97771
1868.717	139.56366
1870.2109	141.15666
1871.7047	139.3027
1873.1986	141.03792
1874.6924	148.2328
1876.1863	144.65897
1877.6802	147.82259
1879.174	147.36858
1880.6678	144.59525
1882.1617	144.80318
1883.6555	150.3877
1885.1494	156.60388
1886.6432	151.6691
1888.1371	148.91264
1889.631	150.32877
1891.1248	139.12814
1892.6187	134.54208
1894.1124	142.75682
1895.6063	153.14751
1897.1002	148.90253
1898.594	141.28101
1900.0879	145
1901.5817	152.57065
1903.0756	161.97719
1904.5695	149.82498
1906.0632	150.07288
1907.5571	160.94199
1909.051	146.75488
1910.5448	151.02672
1912.0387	151.07301
1913.5325	141.10217
1915.0264	137.61945
1916.5203	147.68143
1918.014	158.86751
1919.5079	149
1921.0017	147.84122
1922.4956	152.2106
1923.9895	158.88039
1925.4833	152.82202
1926.9772	142.30902
1928.4709	135.75528
1929.9648	148.80434
1931.4587	150.17534
1932.9525	147.21921
1934.4464	145.30836
1935.9402	144.96951
1937.4341	146.15141
1938.928	142.63499
1940.4218	145.59357
1941.9156	143.14975
1943.4095	144.69756
1944.9033	147.39136
1946.3972	147.66869
1947.891	143.69467
1949.3849	145.18387
1950.8788	139.32188
1952.3726	140.58786
1953.8665	147.94344
1955.3602	145.18088
1956.8541	144.86578
1958.348	141.16284
1959.8418	138.95956
1961.3357	137.44591
1962.8295	139.19348
1964.3234	144.37778
1965.8173	141
1967.311	137.80759
1968.8049	140.93913
1970.2988	154.21912
1971.7926	154.88208
1973.2865	149.43544
1974.7803	152.43484
1976.2742	145.12715
1977.7681	137.41031
1979.2618	146.5809
1980.7557	139.62216
1982.2495	134.70517
1983.7434	138.25439
1985.2373	135.17795
1986.7311	141.41115
1988.225	130.88409
1989.7188	133.68135
1991.2126	138.32187
1992.7065	138
1994.2003	134.50116
1995.6942	140.10838
1997.188	141.55577
1998.6819	139.53296
2000.1758	152.41243
2001.6696	157
2003.1635	134.70142
2004.6573	158.46393
2006.1511	159.06541
2007.645	140.87979
2009.1388	132.08792
2010.6327	151.78932
2012.1266	147.5535
2013.6204	133.98943
2015.1143	145.06973
2016.608	162.94676
2018.1019	136.20331
2019.5958	148.53517
2021.0896	129.5838
2022.5835	144.96114
2024.0773	143.12959
2025.5712	162.42999
2027.0651	163.98636
2028.5588	145.00513
2030.0527	147.01778
2031.5466	147.20226
2033.0404	125.02472
2034.5343	145.25842
2036.0281	147.54791
2037.522	131.5869
2039.0159	138.14139
2040.5096	147.26129
2042.0035	147.81956
2043.4973	142.32307
2044.9912	148.8176
2046.4851	149.79695
2047.9789	154.17551
2049.4727	141.4068
2050.9666	136.80357
2052.4604	148.27148
2053.9543	149
2055.4482	149.61818
2056.9419	151.65529
2058.4358	151.26639
2059.9297	152.0291
2061.4236	157.07321
2062.9175	159.26607
2064.4111	160.62201
2065.905	154.22398
2067.3989	156.5349
2068.8928	148.22914
2070.3867	140
2071.8804	136.3131
2073.3743	131.90456
2074.8682	146.93262
2076.3621	146.60083
2077.856	142.89194
2079.3499	144.09982
2080.8435	145.62106
2082.3374	136.83565
2083.8313	145.2962
2085.3252	142.32936
2086.8191	150.17551
2088.3127	140.18658
2089.8066	139.16302
2091.3005	149.76433
2092.7944	138.59877
2094.2883	133.41747
2095.782	139.19594
2097.2759	131.8231
2098.7698	155.26382
2100.2637	132.11591
2101.7576	148.67934
2103.2512	133.08444
2104.7451	144.16011
2106.239	148.36594
2107.7329	137.588
2109.2268	132.45834
2110.7205	128
2112.2144	128.32008
2113.7083	130.55928
2115.2021	134.27412
2116.696	136.84868
2118.1897	132.91907
2119.6836	141
2121.1775	137.48117
2122.6714	135.54854
2124.1653	146.74953
2125.6589	150.01192
2127.1528	150.4205
2128.6467	140.58195
2130.1406	134.9462
2131.6345	134.42635
2133.1282	133.63109
2134.6221	137.28899
2136.116	129.38162
2137.6099	139.399
2139.1038	137.12515
2140.5977	131
2142.0913	130.28062
2143.5852	132.24937
2145.0791	142.35266
2146.573	146.61957
2148.0669	143.63754
2149.5605	149.97301
2151.0544	153.70891
2152.5483	145.60072
2154.0422	145.96472
2155.5361	144.00676
2157.0298	129.28535
2158.5237	139.54648
2160.0176	146.62154
2161.5115	133.498
2163.0054	137.47148
2164.499	139.23955
2165.9929	136
2167.4868	139.33434
2168.9807	149
2170.4746	146.42105
2171.9683	150.61888
2173.4622	152.38976
2174.9561	128.8488
2176.45	139.63542
2177.9438	149.51968
2179.4375	151.16937
2180.9314	150.05759
2182.4253	151.18848
2183.9192	145.76346
2185.4131	144.34517
2186.9067	152.34256
2188.4006	152.77818
2189.8945	143.45667
2191.3884	141.81305
2192.8823	138.60201
2194.376	138.88611
2195.8699	152.84335
2197.3638	165.51831
2198.8577	132.10167
2200.3516	141.54967
2201.8455	155.70328
2203.3391	138.34154
2204.833	136.54312
2206.3269	157
2207.8208	153.18994
2209.3147	140.26256
2210.8083	138.58734
2212.3022	131.29333
2213.7961	137.50792
2215.29	143.35023
2216.7839	144.22913
2218.2776	148.53444
2219.7715	142.99953
2221.2654	149
2222.7593	146.52092
2224.2532	143.6797
2225.7468	140.19736
2227.2407	142.70712
2228.7346	135.38458
2230.2285	152.79097
2231.7224	148.3401
2233.2161	154.25908
2234.71	153.10179
2236.2039	133.15924
2237.6978	148.45351
2239.1917	132.31194
2240.6853	124.59528
2242.1792	129.65048
2243.6731	135.87663
2245.167	145.50742
2246.6609	136.02316
2248.1545	129.3786
2249.6484	143.04167
2251.1423	139.08221
2252.6362	133.09079
2254.1301	140
2255.624	135.53438
2257.1177	130.79456
2258.6116	137.12907
2260.1055	142.3867
2261.5994	143
2263.0933	128.09187
2264.5869	135.62489
2266.0808	137.12296
2267.5747	144.38411
2269.0686	137.24779
2270.5625	163.49606
2272.0562	133.37636
2273.55	138.11655
2275.0439	133.20346
2276.5378	143.15179
2278.0317	138.78084
2279.5254	140.3773
2281.0193	126.04691
2282.5132	128.79492
2284.0071	135.79652
2285.501	142.01073
2286.9946	133.3902
2288.4885	133.5182
2289.9824	127.72829
2291.4763	135.1337
2292.9702	127.6591
2294.4639	141.18575
2295.9578	135.06577
2297.4517	136.56351
2298.9456	140.76715
2300.4395	144.97206
2301.9331	133.08649
2303.427	134.71576
2304.9209	130.98175
2306.4148	129.73906
2307.9087	147.75325
2309.4023	143.09753
2310.8962	136.05255
2312.3901	130.24527
2313.884	136.83156
2315.3779	127.75929
2316.8718	121.50883
2318.3655	129.93338
2319.8594	136.35133
2321.3533	142.34467
2322.8472	137.78188
2324.3411	136
2325.8347	129.79973
2327.3286	135.575
2328.8225	140.97034
2330.3164	149.54036
2331.8103	158.53879
2333.304	146.47887
2334.7979	147.71457
2336.2917	142.18982
2337.7856	142.60861
2339.2795	144.17715
2340.7732	138
2342.2671	134.04745
2343.761	144.87045
2345.2549	142.41624
2346.7488	137.65378
2348.2424	136.38905
2349.7363	127.212
2351.2302	130.85396
2352.7241	147.20175
2354.218	148.04767
2355.7117	133
2357.2056	133
2358.6995	133.25552
2360.1934	134.44006
2361.6873	135.92989
2363.1809	145.86555
2364.6748	140.27116
2366.1687	144.5125
2367.6626	143.77498
2369.1565	138.26343
2370.6501	137.97911
2372.144	141.31625
2373.6379	144
2375.1318	153.43193
2376.6257	140.75581
2378.1196	126.19445
2379.6133	132.75516
2381.1072	127.68263
2382.6011	147.42146
2384.095	130.91685
2385.5889	131.07402
2387.0825	151.32468
2388.5764	145.63286
2390.0703	143.4045
2391.5642	146.33711
2393.0581	136.25153
2394.5518	128.57036
2396.0457	140.22029
2397.5396	145.72226
2399.0334	140.49748
2400.5273	144.10136
2402.021	144.08554
2403.5149	131.25938
2405.0088	159.50667
2406.5027	148.67105
2407.9966	143.55446
2409.4902	136.08534
2410.9841	145.32039
2412.478	146.30562
2413.9719	152.80174
2415.4658	135.95387
2416.9595	141.2852
2418.4534	141.9832
2419.9473	138
2421.4412	148.03925
2422.9351	151.83951
2424.4287	144.74663
2425.9226	141.0743
2427.4165	148.61446
2428.9104	140.3322
2430.4043	143.35928
2431.8979	146.48688
2433.3918	144.66855
2434.8857	130.61401
2436.3796	140.914
2437.8735	152.42719
2439.3674	146.2485
2440.8611	145.65646
2442.355	161.67932
2443.8489	150.1226
2445.3428	148.62416
2446.8367	140.49612
2448.3303	147.14809
2449.8242	154.95641
2451.3181	143.20583
2452.812	139.45932
2454.3059	139.79538
2455.7996	137.37326
2457.2935	138.44533
2458.7874	143.65825
2460.2813	149.77029
2461.7751	146.36107
2463.2688	144
2464.7627	148.04785
2466.2566	150.7648
2467.7505	140.47998
2469.2444	136.14816
2470.738	140.16772
2472.2319	134.9543
2473.7258	144.25253
2475.2197	148.27211
2476.7136	147.36639
2478.2073	138.38309
2479.7012	136.58629
2481.1951	131.11702
2482.689	124.37649
2484.1829	142.24846
2485.6765	142.01289
2487.1704	151.24001
2488.6643	132.06087
2490.1582	140.67743
2491.6521	148
2493.1458	143.23413
2494.6396	131.47112
2496.1335	139.78526
2497.6274	140.05856
2499.1213	135.7059
2500.6152	127.36012
2502.1089	140.91539
2503.6028	146.43246
2505.0967	144.27435
2506.5906	140.2318
2508.0845	131.10126
2509.5781	135.20078
2511.072	133.21297
2512.5659	154.66165
2514.0598	151.05695
2515.5537	148.61371
2517.0474	144.4985
2518.5413	150.25792
2520.0352	142.38223
2521.5291	147.91524
2523.0229	153.47316
2524.5166	148.57019
2526.0105	151.94633
2527.5044	124.89303
2528.9983	135.18996
2530.4922	127.79871
2531.9858	139.84325
2533.4797	146
2534.9736	154.18941
2536.4675	157.35004
2537.9614	131.60358
2539.4551	133.17534
2540.949	146.97333
2542.4429	149
2543.9368	145.06413
2545.4307	128.93161
2546.9243	130.75407
2548.4182	147.42619
2549.9121	151.03175
2551.406	143.28885
2552.8999	143.38612
2554.3936	145.63126
2555.8875	137.01154
2557.3813	126.74148
2558.8752	156.68076
2560.3691	155.60413
2561.863	152.81279
2563.3567	137.24817
2564.8506	149.49332
2566.3445	149.53981
2567.8384	146.2278
2569.3323	146.82294
2570.8259	140.41075
2572.3198	139.95779
2573.8137	136.19987
2575.3076	141.20146
2576.8015	148.04691
2578.2952	154.36826
2579.7891	145.9303
2581.283	143.42534
2582.7769	143.87286
2584.2708	153.1579
2585.7644	152.17749
2587.2583	152.88977
2588.7522	160.10286
2590.2461	163.43019
2591.74	141.67839
2593.2336	145.67589
2594.7275	163.08842
2596.2214	150.74669
2597.7153	133.34514
2599.2092	150.99976
2600.7029	137.47014
2602.1968	141.23615
2603.6907	142.96526
2605.1846	143.11938
2606.6785	154.93135
2608.1721	145.52148
2609.666	153.30528
2611.1599	140.48009
2612.6538	162.92664
2614.1477	148.60551
2615.6414	149.45514
2617.1353	152.75334
2618.6292	153.25024
2620.123	151.53891
2621.6169	149.43414
2623.1108	149.60863
2624.6045	134.58995
2626.0984	149.75638
2627.5923	147.14113
2629.0862	151.80431
2630.5801	145.87498
2632.0737	153.83768
2633.5676	154.57787
2635.0615	151.83887
2636.5554	149.8299
2638.0493	154.1689
2639.543	161.70389
2641.0369	146.36211
2642.5308	147.41135
2644.0247	144.77838
2645.5186	148.77232
2647.0122	151.6129
2648.5061	150.85934
2650	136.57977
2651.4939	137.39301
2652.9878	145.09067
2654.4814	145.60257
2655.9753	157.09265
2657.4692	140.97717
2658.9631	143.66339
2660.457	149.93962
2661.9507	141.21404
2663.4446	147.74594
2664.9385	152.74782
2666.4324	151.43729
2667.9263	149.01086
2669.4199	150.78189
2670.9138	159.58388
2672.4077	142.29655
2673.9016	140.20488
2675.3955	144.01746
2676.8892	146.49406
2678.3831	145.15298
2679.877	143.47847
2681.3708	146.47368
2682.8647	144.8356
2684.3586	155.83246
2685.8523	142.8342
2687.3462	156.60471
2688.8401	144.59888
2690.334	142.89099
2691.8279	137.98416
2693.3215	149.92601
2694.8154	155.24847
2696.3093	152.25244
2697.8032	154.99521
2699.2971	143.81999
2700.7908	157.50092
2702.2847	140.38364
2703.7786	142.3519
2705.2725	144.61975
2706.7664	136.99911
2708.26	148.84839
2709.7539	145.46539
2711.2478	150.37227
2712.7417	152.22699
2714.2356	152.22887
2715.7292	145.0976
2717.2231	146.32863
2718.717	142.47142
2720.2109	139.94933
2721.7048	156.21535
2723.1985	164.44473
2724.6924	149.25438
2726.1863	157.99934
2727.6802	136.48042
2729.1741	138.30548
2730.6677	149.09706
2732.1616	143.25616
2733.6555	138.35536
2735.1494	142.49417
2736.6433	151.51756
2738.137	148.94954
2739.6309	156.46982
2741.1248	139.99371
2742.6187	141.72527
2744.1125	148.6241
2745.6064	154.11668
2747.1001	153.55367
2748.594	153.07335
2750.0879	149.63921
2751.5818	155.09247
2753.0757	153.44666
2754.5693	160.53703
2756.0632	157.85924
2757.5571	148.26654
2759.051	141.04971
2760.5449	143.6064
2762.0386	156.56111
2763.5325	149.38388
2765.0264	138.0452
2766.5203	148.60622
2768.0142	150.8035
2769.5078	144.58015
2771.0017	143.46632
2772.4956	145.13635
2773.9895	143.87001
2775.4834	140.53992
2776.9771	141.67699
2778.4709	140.40166
2779.9648	146.80014
2781.4587	147.72844
2782.9526	154.97173
2784.4463	146.05928
2785.9402	142.28189
2787.4341	149.93954
2788.928	149.07077
2790.4219	151.87314
2791.9155	148.72057
2793.4094	154.2692
2794.9033	143.4299
2796.3972	145.79913
2797.8911	146.07442
2799.3848	147.35388
2800.8787	148.23268
2802.3726	147.71503
2803.8665	147.27591
2805.3604	144.5248
2806.8542	142.0126
2808.3479	147.13167
2809.8418	147.74527
2811.3357	144.34303
2812.8296	140.82515
2814.3235	141.73822
2815.8171	142.47629
2817.311	137.74626
2818.8049	152.50301
2820.2988	150.60278
2821.7927	145.46336
2823.2864	146.15291
2824.7803	148.24677
2826.2742	141.59386
2827.7681	141.21889
2829.262	150.22433
2830.7556	145.91522
2832.2495	145.39648
2833.7434	134.21556
2835.2373	140.17358
2836.7312	146.65712
2838.2249	141.16351
2839.7188	138.83507
2841.2126	149.35173
2842.7065	143.28304
2844.2004	152.81735
2845.6941	144.33356
2847.188	150.42078
2848.6819	153.29628
2850.1758	141.65361
2851.6697	145.32387
2853.1633	147.48833
2854.6572	150.47836
2856.1511	138.0255
2857.645	150.18867
2859.1389	148.75578
2860.6326	145.11559
2862.1265	136.5421
2863.6204	137.91975
2865.1143	136.34842
2866.6082	148.65071
2868.1021	148.25023
2869.5957	145.40283
2871.0896	148.61981
2872.5835	147.96727
2874.0774	151.36568
2875.5713	144.89902
2877.0649	148.94026
2878.5588	139.24638
2880.0527	148.42401
2881.5466	138.57831
2883.0405	139.59052
2884.5342	141.9782
2886.0281	144.10973
2887.522	145.6235
2889.0159	139.13542
2890.5098	150.22461
2892.0034	137.1689
2893.4973	139.8774
2894.9912	144.97867
2896.4851	143.92705
2897.979	138.59586
2899.4727	152.25307
2900.9666	155.23611
2902.4604	144.06529
2903.9543	143.27873
2905.4482	150.95944
2906.9419	147.19728
2908.4358	140.40604
2909.9297	150.63643
2911.4236	138.3624
2912.9175	145.22679
2914.4111	133.81627
2915.905	140.06097
2917.3989	151.85202
2918.8928	147.42628
2920.3867	137.7561
2921.8804	145.60805
2923.3743	158.60413
2924.8682	151.97356
2926.3621	138.63016
2927.856	142.91057
2929.3499	146.84634
2930.8435	145.84056
2932.3374	138.94312
2933.8313	150.58719
2935.3252	152.71434
2936.8191	146.85912
2938.3127	143.4825
2939.8066	150.04774
2941.3005	154.47176
2942.7944	148.87134
2944.2883	149.19841
2945.782	154.31828
2947.2759	146.53763
2948.7698	143.38124
2950.2637	151.7012
2951.7576	141.56094
2953.2512	146.12495
2954.7451	152.51848
2956.239	145.35213
2957.7329	139.64995
2959.2268	143.11916
2960.7205	145.79108
2962.2144	141.48486
2963.7083	137.00246
2965.2021	146.35207
2966.696	151.63045
2968.1897	142.47337
2969.6836	146.86719
2971.1775	148.45561
2972.6714	142.76587
2974.1653	150.86818
2975.6589	140.0416
2977.1528	134.84856
2978.6467	146.13478
2980.1406	150.7113
2981.6345	140.52386
2983.1282	144.04271
2984.6221	143.11005
2986.116	150.18262
2987.6099	143.49075
2989.1038	152.12564
2990.5977	146.23126
2992.0913	145.34183
2993.5852	149.27844
2995.0791	136.04236
2996.573	157.41629
2998.0669	144.11424
2999.5605	141.79683
3001.0544	141.87411
3002.5483	135.93155
3004.0422	134.87488
3005.5361	151.47798
3007.0298	146.85539
3008.5237	151.49641
3010.0176	146.61331
3011.5115	143.42296
3013.0054	154.94136
3014.499	152.24333
3015.9929	152.83699
3017.4868	143.83203
3018.9807	152.5121
3020.4746	131.94957
3021.9683	133.52136
3023.4622	142.19084
3024.9561	131.58983
3026.45	145.0752
3027.9438	149.69327
3029.4375	154.71086
3030.9314	147.86218
3032.4253	135.24951
3033.9192	135.05092
3035.4131	136.14444
3036.9067	133.81404
3038.4006	144.31117
3039.8945	146.72342
3041.3884	142.42419
3042.8823	138.29033
3044.376	140.21585
3045.8699	137.59865
3047.3638	144.41315
3048.8577	152.09441
3050.3516	136.7706
3051.8455	140.82066
3053.3391	131.72646
3054.833	142.98106
3056.3269	136.56213
3057.8208	160.90788
3059.3147	151.44858
3060.8083	133.59271
3062.3022	138.31274
3063.7961	144.38898
3065.29	155.05988
3066.7839	157.00713
3068.2776	171.06242
3069.7715	154.9417
3071.2654	152.89192
3072.7593	141.92303
3074.2532	137.01489
3075.7468	141.34796
3077.2407	144.24028
3078.7346	140.9138
3080.2285	138.37456
3081.7224	137.12483
3083.2161	139.22513
3084.71	140.5016
3086.2039	134.61063
3087.6978	142.0184
3089.1917	148.14632
3090.6853	144.23097
3092.1792	130.02713
3093.6731	140.47092
3095.167	145
3096.6609	139.13022
3098.1545	136.82693
3099.6484	150.70322
3101.1423	159.45538
3102.6362	140.85358
3104.1301	140.42513
3105.624	146.60793
3107.1177	141.0657
3108.6116	151.09888
3110.1055	139.08121
3111.5994	158.83661
3113.0933	142.13435
3114.5869	142.8587
3116.0808	134.64751
3117.5747	126.92423
3119.0686	137.48296
3120.5625	152.18263
3122.0562	143.05646
3123.55	148.36536
3125.0439	144.51837
3126.5378	145.45157
3128.0317	151.05923
3129.5254	140.82617
3131.0193	150.21762
3132.5132	146.60463
3134.0071	141.91093
3135.501	150.45328
3136.9946	156.09267
3138.4885	148.76974
3139.9824	141.3208
3141.4763	135.3246
3142.9702	146.41367
3144.4639	154.33191
3145.9578	158.85646
3147.4517	133.38608
3148.9456	144.64973
3150.4395	139.67618
3151.9331	139.8382
3153.427	144.1376
3154.9209	152.65884
3156.4148	142.03632
3157.9087	151.1132
3159.4023	154.10234
3160.8962	144.87256
3162.3901	140.1787
3163.884	145.96709
3165.3779	140
3166.8718	139.65714
3168.3655	143.134
3169.8594	136.63658
3171.3533	130.26759
3172.8472	146.59065
3174.3411	140.67207
3175.8347	151.25682
3177.3286	147.56715
3178.8225	138.33548
3180.3164	128.56424
3181.8103	145.90918
3183.304	158.00107
3184.7979	146.93932
3186.2917	141.72516
3187.7856	139.82156
3189.2795	147.86447
3190.7732	129.90956
3192.2671	144.04465
3193.761	154.06181
3195.2549	144.89143
3196.7488	166.18564
3198.2424	152.28391
3199.7363	136.92136
3201.2302	134.10332
3202.7241	150.03043
3204.218	143.90678
3205.7117	146.64993
3207.2056	129.34528
3208.6995	129.35724
3210.1934	143.9229
3211.6873	142.93884
3213.1809	138.28903
3214.6748	143.03662
3216.1687	145.53238
3217.6626	148.19562
3219.1565	136.42168
3220.6501	142.48541
3222.144	133.66397
3223.6379	142.44603
3225.1318	145.06175
3226.6257	132.99286
3228.1196	140.77754
3229.6133	154.25856
3231.1072	149.50697
3232.6011	155.46634
3234.095	141.89842
3235.5889	146.86716
3237.0825	146.4641
3238.5764	155.73009
3240.0703	138.22198
3241.5642	128.65208
3243.0581	134.93999
3244.5518	138.11954
3246.0457	133.37122
3247.5396	141.73361
3249.0334	128.98553
3250.5273	154.34242
3252.021	148.46631
3253.5149	139.7767
3255.0088	151.65027
3256.5027	138.79456
3257.9966	129.77188
3259.4902	122.61377
3260.9841	135.54454
3262.478	145.86368
3263.9719	150.16321
3265.4658	145.62779
3266.9595	157.82359
3268.4534	140.37526
3269.9473	132.07268
3271.4412	156.35455
3272.9351	159.92793
3274.4287	155.49086
3275.9226	139.30685
3277.4165	133.23175
3278.9104	140.14462
3280.4043	151.58272
3281.8979	143.15546
3283.3918	139.69235
3284.8857	138.15315
3286.3796	140.08002
3287.8735	139.899
3289.3674	138.12579
3290.8611	139.40987
3292.355	133.55437
3293.8489	154.81
3295.3428	136.02167
3296.8367	142.80092
3298.3303	152.95152
3299.8242	150.67613
3301.3181	133.22446
3302.812	154.99898
3304.3059	160.218
3305.7996	149.97417
3307.2935	143.91417
3308.7874	143.96826
3310.2813	139.1416
3311.7751	152.81982
3313.2688	146.19638
3314.7627	141.72485
3316.2566	139.08759
3317.7505	156.37823
3319.2444	146.63443
3320.738	138.31696
3322.2319	141
3323.7258	146.70593
3325.2197	146.30084
3326.7136	145.89461
3328.2073	140.89882
3329.7012	139.24858
3331.1951	133.28896
3332.689	139.13164
3334.1829	143.9218
3335.6765	145.44127
3337.1704	141.8584
3338.6643	131.25078
3340.1582	140.5069
3341.6521	152.37997
3343.1458	128.03839
3344.6396	134.21794
3346.1335	140.88721
3347.6274	133.61925
3349.1213	144.86446
3350.6152	144.1649
3352.1089	140.28282
3353.6028	129.08995
3355.0967	139.36642
3356.5906	149.80232
3358.0845	143.07982
3359.5781	148.58226
3361.072	165.66061
3362.5659	142.99951
3364.0598	133.00391
3365.5537	136.61038
3367.0474	140.15903
3368.5413	137.18837
3370.0352	140.23599
3371.5291	144.46768
3373.0229	143.96631
3374.5166	140
3376.0105	130.3632
3377.5044	145.29391
3378.9983	143.4888
3380.4922	152.37581
3381.9858	138.59152
3383.4797	150.61324
3384.9736	149.69452
3386.4675	146.41132
3387.9614	145.55167
3389.4551	147.96896
3390.949	129.87775
3392.4429	137.9234
3393.9368	131.20227
3395.4307	147.4418
3396.9243	133.3679
3398.4182	148.23631
3399.9121	155.7149
3401.406	146.83446
3402.8999	144.98351
3404.3936	141.17194
3405.8875	141.20456
3407.3813	147.24013
3408.8752	147.5739
3410.3691	141.18292
3411.863	129.90411
3413.3567	149.2796
3414.8506	138.32944
3416.3445	132.82486
3417.8384	133.03661
3419.3323	138.73178
3420.8259	150.65909
3422.3198	142.79703
3423.8137	144.8759
3425.3076	141
3426.8015	145.00348
3428.2952	155.57416
3429.7891	141.42302
3431.283	140.79449
3432.7769	149.82408
3434.2708	157.48111
3435.7644	145.93965
3437.2583	146.4908
3438.7522	141.48685
3440.2461	148.04684
3441.74	148.28583
3443.2336	140.04111
3444.7275	121.88869
3446.2214	148.27238
3447.7153	144.73167
3449.2092	146.58665
3450.7029	140.54381
3452.1968	139.19298
3453.6907	146.74594
3455.1846	148.52948
3456.6785	137.6232
3458.1721	147.61182
3459.666	153.31897
3461.1599	140.40305
3462.6538	122.67825
3464.1477	136.27399
3465.6414	140.7854
3467.1353	135.9995
3468.6292	141.20734
3470.123	138.3949
3471.6169	136.23338
3473.1108	128.16992
3474.6045	136.11215
3476.0984	144.55376
3477.5923	128.48981
3479.0862	135.79071
3480.5801	149.82535
3482.0737	136.03215
3483.5676	140.31541
3485.0615	138.34557
3486.5554	153.34798
3488.0493	134.53539
3489.543	136.36406
3491.0369	147.29306
3492.5308	145.82652
3494.0247	142.11403
3495.5186	146.68256
3497.0122	140.11784
3498.5061	135.00066
3500	144.91495
