100	5546.8213
101.49385	5730.3179
102.9877	5692.229
104.48154	5684.5586
105.9754	5706.8257
107.46925	5722.0225
108.9631	5693.5825
110.45694	5466.1162
111.95079	5496.9043
113.44464	5532.9048
114.93849	5514.5752
116.43233	5548.9517
117.92619	5548.1387
119.42004	5543.9497
120.91389	5501.9253
122.40773	5471.2036
123.90158	5487.8364
125.39543	5424.3438
126.88928	5301.188
128.38313	5352.8276
129.87698	5454.9458
131.37082	5485.1704
132.86467	5400.0176
134.35852	5404.0913
135.85237	5432.8945
137.34622	5555.0698
138.84007	5685
140.33392	5676.3677
141.82777	5588.2993
143.32161	5603.3052
144.81546	5613.4731
146.30931	5615.7432
147.80316	5620.8403
149.29701	5620.0239
150.79086	5731.6665
152.28471	5797.5
153.77856	5752.1797
155.27242	5682.4463
156.76625	5748.999
158.2601	5652.606
159.75395	5746.1465
161.2478	5790.4272
162.74165	5789.6245
164.2355	5803.7734
165.72935	5852.8247
167.22321	5868.2842
168.71704	5908.5537
170.21089	5892.0693
171.70474	5848.7104
173.19859	5895.5103
174.69244	5933.1538
176.18629	6015.1387
177.68015	6123.1118
179.174	6145.8447
180.66783	6056.9307
182.16168	6106.1255
183.65553	6087.5137
185.14938	6193.1147
186.64323	6232.5815
188.13708	6206.7368
189.63094	6254.3159
191.12479	6172.3389
192.61862	6228.9058
194.11247	6298.1631
195.60632	6328.0425
197.10017	6325.1025
198.59402	6374.3848
200.08788	6353.9316
201.58173	6389.3857
203.07558	6391.2861
204.56943	6365
206.06326	6367.9497
207.55711	6393.437
209.05096	6233.4683
210.54482	6332.875
212.03867	6386.0342
213.53252	6266.6519
215.02637	6239.0122
216.52022	6146.8384
218.01405	6190.4785
219.5079	6256.123
221.00175	6323.5112
222.49561	6373.2622
223.98946	6281.0166
225.48331	6292.7397
226.97716	6309.8086
228.47101	6267.7124
229.96484	6181.668
231.45869	6132.6938
232.95255	6231.625
234.4464	6213.1143
235.94025	6136.1572
237.4341	6150.9829
238.92795	6287.4307
240.4218	6380.2222
241.91563	6264.6904
243.40948	6292.729
244.90334	6298.4336
246.39719	6306.8433
247.89104	6355.437
249.38489	6330.6611
250.87874	6321.9692
252.37259	6269.0513
253.86644	6297.6626
255.36028	6346.6807
256.85413	6303.563
258.34799	6392.8457
259.84183	6355.1782
261.33566	6384.3916
262.82953	6458.3618
264.32336	6508.5049
265.81723	6470.062
267.31107	6446.0654
268.80493	6434.3467
270.29877	6387.6665
271.79263	6364.0454
273.28647	6390.7383
274.7803	6419.354
276.27417	6481.4761
277.76801	6476.1919
279.26187	6372.6006
280.75571	6328.4648
282.24957	6396.4385
283.74341	6298.1113
285.23724	6419.9912
286.73111	6283.521
288.22495	6285.9673
289.71881	6366.1558
291.21265	6328.0205
292.70651	6231.7715
294.20035	6106.4854
295.69421	6082.7178
297.18805	6099.4863
298.68188	6117.6577
300.17575	6109.0376
301.66959	6010.2012
303.16345	6008.1445
304.65729	5978.7832
306.15115	5870.0269
307.64499	5765.9678
309.13885	5795.9688
310.63269	5886.4824
312.12653	5767.9941
313.62039	5611.5503
315.11423	5568.6738
316.60809	5608.0596
318.10193	5597.0063
319.59579	5664.3335
321.08963	5495.4385
322.58347	5435.6475
324.07733	5401.6621
325.57117	5353.7202
327.06503	5322.9736
328.55887	5233.0122
330.05273	5260.6284
331.54657	5244.813
333.04044	5195.4434
334.53427	5146.5205
336.02811	5119.9644
337.52197	5074.106
339.01581	5056.333
340.50967	4987.9204
342.00351	4980.7666
343.49738	4995.2163
344.99121	4889.105
346.48505	4819.834
347.97891	4820.8804
349.47275	4792.4341
350.96661	4732.4761
352.46045	4694.4731
353.95432	4712.9863
355.44815	4569.2988
356.94202	4559.7759
358.43585	4594.8477
359.92969	4537.8501
361.42355	4460.3843
362.91739	4520.9399
364.41125	4583.6558
365.90509	4606.0024
367.39896	4541.8901
368.89279	4471.2471
370.38666	4477.1191
371.88049	4562.519
373.37433	4517.3198
374.86819	4517.6255
376.36203	4513.4497
377.8559	4522.6997
379.34973	4497.9434
380.8436	4426.0454
382.33743	4452.0698
383.83127	4550.1157
385.32513	4524.3364
386.81897	4486.5205
388.31284	4466.4063
389.80667	4473.7344
391.30054	4539.5112
392.79437	4526.0908
394.28824	4495.6685
395.78207	4534.4155
397.27591	4560.4912
398.76978	4519.8789
400.26361	4469.7905
401.75748	4530.2432
403.25131	4569.0742
404.74518	4550.7095
406.23901	4533.4067
407.73288	4535.0742
409.22672	4535.1924
410.72055	4599.9814
412.21442	4575.6162
413.70825	4564.854
415.20212	4516.4697
416.69595	4491.6768
418.18982	4543.875
419.68365	4493.3999
421.17749	4498.8501
422.67136	4443.7734
424.16519	4483.9629
425.65906	4559.7139
427.15289	4572.439
428.64676	4522.4155
430.14059	4436.4097
431.63446	4456.417
433.1283	4486.9131
434.62213	4535.0908
436.116	4571.354
437.60983	4535.8467
439.1037	4518.1431
440.59753	4500.436
442.0914	4525.707
443.58524	4557.2822
445.07907	4554.4248
446.57294	4540.251
448.06677	4669.3125
449.56064	4703.1118
451.05447	4671.356
452.54834	4618.7271
454.04218	4530.8364
455.53604	4481.9009
457.02988	4625.7222
458.52371	4678.1016
460.01758	4656.1602
461.51141	4622.2866
463.00528	4578.0952
464.49911	4557.7329
465.99298	4593.5767
467.48682	4630.7847
468.98068	4518.3184
470.47452	4581.5781
471.96835	4618.3979
473.46222	4620.042
474.95605	4609.8018
476.44992	4546.6475
477.94376	4417.1162
479.43762	4564.0728
480.93146	4598.4561
482.42529	4508.0161
483.91916	4472.0835
485.41299	4587.3315
486.90686	4504.3765
488.4007	4560.3813
489.89456	4495.5713
491.3884	4438.6699
492.88226	4461.1104
494.3761	4512.3828
495.86993	4461.0371
497.3638	4373.6519
498.85764	4378.3301
500.3515	4343.6748
501.84534	4315.1128
503.3392	4288.1636
504.83304	4240.8755
506.3269	4192.6572
507.82074	4165.4771
509.31458	4211.6958
510.80844	4168.6484
512.30231	4123.9063
513.79614	4106.2495
515.28998	4066.2891
516.78381	4026.2822
518.27771	4054.7417
519.77155	4052.3438
521.26538	4006.8591
522.75922	3962.4341
524.25305	3987.9622
525.74695	4097.4141
527.24078	4008.7903
528.73462	3982.2559
530.22845	3963.8484
531.72229	3894.3223
533.21619	3898.0256
534.71002	3986.9646
536.20386	3902.376
537.69769	3944.9834
539.19159	3958.2747
540.68542	3892.1047
542.17926	3856.2725
543.6731	3886.9314
545.16693	3943.3333
546.66083	3968.1458
548.15466	3907.573
549.6485	3932.8894
551.14233	3984.9282
552.63623	3975.9839
554.13007	3933.9299
555.6239	3931.5508
557.11774	3910.2224
558.61157	3963.2407
560.10547	3972.4585
561.5993	3962.4822
563.09314	3933.8867
564.58698	3895.77
566.08087	3866.5818
567.57471	3853.3113
569.06854	3896.9714
570.56238	3904
572.05621	3901.126
573.55011	3896.4153
575.04395	3910.7798
576.53778	3955.7175
578.03162	3959.9751
579.52551	3915.4065
581.01935	3988.7683
582.51318	3899.8523
584.00702	3849.7031
585.50085	3884.8323
586.99475	3837.1438
588.48859	3837.9702
589.98242	3823.3831
591.47626	3798.7415
592.97009	3794.6108
594.46399	3794.9602
595.95782	3778.4326
597.45166	3755.8533
598.9455	3800.0691
600.43939	3806.0825
601.93323	3753.1182
603.42706	3792.9226
604.9209	3809.5247
606.41473	3789.9543
607.90863	3801.7017
609.40247	3724.1638
610.8963	3696.6428
612.39014	3704.1953
613.88403	3740.1541
615.37787	3768.4653
616.8717	3768.5098
618.36554	3737.1411
619.85938	3675.6519
621.35327	3651.5432
622.84711	3682.1245
624.34094	3722.3184
625.83478	3763.1741
627.32867	3775.6514
628.82251	3747.4275
630.31635	3723.4419
631.81018	3761.3699
633.30402	3813.7488
634.79791	3778.1416
636.29175	3784.0813
637.78558	3810.2183
639.27942	3805.4502
640.77332	3805.9441
642.26715	3887.0659
643.76099	3814.8523
645.25482	3781.2356
646.74866	3774.708
648.24255	3805.0022
649.73639	3835.8826
651.23022	3813.7058
652.72406	3786.5857
654.21796	3807.3252
655.71179	3854.4172
657.20563	3832.5388
658.69946	3762.6675
660.1933	3738.0762
661.68719	3779.7739
663.18103	3752.3025
664.67487	3744.5164
666.1687	3806.2102
667.66254	3750.8889
669.15643	3720.7808
670.65027	3752.4045
672.1441	3781.7764
673.63794	3753.6782
675.13184	3782.9475
676.62567	3770.8059
678.11951	3762.3616
679.61334	3717.1038
681.10718	3740.3242
682.60107	3772.3347
684.09491	3735.5254
685.58875	3779.0967
687.08258	3673.2886
688.57648	3794.4238
690.07031	3745.3193
691.56415	3657.5334
693.05798	3660.9038
694.55182	3739.5571
696.04572	3765.7339
697.53955	3703.7146
699.03339	3838.3196
700.52722	3878.635
702.02112	3839.2588
703.51495	3799.1765
705.00879	3788.811
706.50262	3791.5374
707.99646	3798.5635
709.49036	3872.5513
710.98419	3853.1396
712.47803	3876.7422
713.97186	3904.283
715.46576	3896.5847
716.95959	3937.0854
718.45343	4064.8547
719.94727	4029.282
721.4411	3950.9321
722.935	3945.0002
724.42883	4022.1626
725.92267	4011.8284
727.4165	4007.0339
728.91034	4062.7534
730.40424	4082.1958
731.89807	4074.853
733.39191	4120.1821
734.88574	4082.8726
736.37964	4084.0481
737.87347	4086.2734
739.36731	4100.3101
740.86115	4142.3525
742.35498	4172.3477
743.84888	4120.5078
745.34271	4095.1643
746.83655	4184.4487
748.33038	4177.2749
749.82428	4092.0161
751.31812	4019.2036
752.81195	4014.9941
754.30579	4057.6191
755.79962	4093.6448
757.29352	4057.8086
758.78735	4064.3667
760.28119	4030.0122
761.77502	4060.835
763.26892	4077.1387
764.76276	3972.907
766.25659	3851.968
767.75043	3961.3809
769.24426	3905.3684
770.73816	3894.1943
772.23199	3849.0044
773.72583	3859.9568
775.21967	3869.0474
776.71356	3817.9937
778.2074	3782.988
779.70123	3772.0176
781.19507	3816.7644
782.6889	3773.1841
784.1828	3769.4282
785.67664	3778.1748
787.17047	3804.6138
788.66431	3835.0112
790.15814	3816.3979
791.65204	3776.5977
793.14587	3875.8755
794.63971	3929.6323
796.13354	3887.6265
797.62744	3853.1265
799.12128	3816.5078
800.61511	3806.4465
802.10895	3859.8223
803.60278	3830.4817
805.09668	3948.3667
806.59052	3989.0439
808.08435	3961.9436
809.57819	3952.7144
811.07208	3970.0884
812.56592	4025.9063
814.05975	4099.7695
815.55359	4090.5149
817.04742	4022.6885
818.54132	4139.7334
820.03516	4144.1943
821.52899	4145.7114
823.02283	4192.8643
824.51672	4199.4453
826.01056	4172.5977
827.50439	4256.6138
828.99823	4346.9331
830.49207	4303.7061
831.98596	4308.8735
833.4798	4301.3511
834.97363	4321.5894
836.46747	4365.8838
837.96136	4370.7617
839.4552	4339.6294
840.94904	4413.8213
842.44287	4420.8882
843.93671	4440.1304
845.4306	4372.9502
846.92444	4424.5327
848.41827	4397.1875
849.91211	4379.5864
851.40601	4433.8213
852.89984	4388.5757
854.39368	4339.9326
855.88751	4354.0879
857.38135	4352.5166
858.87524	4267.1758
860.36908	4234.1958
861.86292	4226.3018
863.35675	4225.479
864.85059	4210.002
866.34448	4116.2627
867.83832	4077.5657
869.33215	3959.7263
870.82599	3953.5862
872.31989	4000.1663
873.81372	4036.9824
875.30756	3947.9128
876.80139	3806.3181
878.29523	3779.0938
879.78912	3823.874
881.28296	3807.5542
882.77679	3733.0166
884.27063	3783.3613
885.76453	3739.1243
887.25836	3736.8384
888.7522	3721.2002
890.24603	3646.7122
891.73987	3618.0798
893.23376	3710.3281
894.7276	3712.9937
896.22144	3659.8025
897.71527	3634.3677
899.20917	3603.7075
900.703	3618.7366
902.19684	3639.668
903.69067	3661.6733
905.18451	3711.679
906.67841	3723.9602
908.17224	3747.074
909.66608	3764.875
911.15991	3802.2764
912.65381	3822.1135
914.14764	3845.657
915.64148	3836.72
917.13531	3868.7229
918.62915	3980.762
920.12305	3985.1738
921.61688	4019.5039
923.11072	3999.0032
924.60455	4109.6177
926.09839	4084.0369
927.59229	4030.958
929.08612	4001.8228
930.57996	4014.2666
932.07379	4050.7969
933.56769	4042.8298
935.06152	3979.6863
936.55536	3818.1077
938.04919	3919.4526
939.54303	3897.1294
941.03693	3911.0022
942.53076	3876.0854
944.0246	3796.4961
945.51843	3750.8569
947.01233	3719.3066
948.50616	3617.5405
950	3660.4541
951.49384	3603.5488
952.98767	3634.1389
954.48157	3533.179
955.9754	3436.9194
957.46924	3402.2161
958.96307	3370.9558
960.45697	3337.55
961.95081	3365.4451
963.44464	3249.2322
964.93848	3253.71
966.43231	3266.5796
967.92621	3192.5938
969.42004	3165
970.91388	3125.4023
972.40771	3106.1404
973.90161	3101.6079
975.39545	3016.9124
976.88928	2923.4705
978.38312	3002.9734
979.87695	3001.1772
981.37085	3068.9246
982.86469	3000.1836
984.35852	2943.2073
985.85236	2896.2754
987.34619	2865.6069
988.84009	2852.0815
990.33392	2841.0247
991.82776	2940.8149
993.32159	2893.1995
994.81549	2874.1877
996.30933	2783.6921
997.80316	2817.2678
999.297	2828.3293
1000.7908	2846.6958
1002.2847	2866.3223
1003.7786	2861.533
1005.2724	2861.7305
1006.7662	2789.7578
1008.2601	2900.4451
1009.754	2827.479
1011.2478	2811.8196
1012.7416	2826.7627
1014.2355	2746.45
1015.7294	2730.6162
1017.2232	2781.458
1018.717	2766.9363
1020.2109	2745.4231
1021.7048	2894.0532
1023.1986	2836.3521
1024.6924	2783.1587
1026.1863	2821.2087
1027.6802	2768.5183
1029.174	2803.6414
1030.6678	2846.2864
1032.1617	2852.4268
1033.6555	2834.5081
1035.1494	2798.8711
1036.6432	2805.4126
1038.1371	2807.4727
1039.631	2795.7197
1041.1248	2874.8042
1042.6187	2833.9988
1044.1124	2896.2786
1045.6063	2841.2046
1047.1002	2803.8376
1048.594	2871.5239
1050.0879	2901.3757
1051.5817	2864.6267
1053.0756	2837.4893
1054.5695	2852.8862
1056.0632	2787.3645
1057.5571	2879.8271
1059.051	2891.9102
1060.5448	2894.4097
1062.0387	2869.696
1063.5325	2841.7122
1065.0264	2827.5686
1066.5203	2816.8435
1068.014	2859.4004
1069.5079	2853.7732
1071.0017	2818.386
1072.4956	2792.585
1073.9895	2832.6567
1075.4833	2838.8135
1076.9772	2878.8652
1078.4709	2852.1152
1079.9648	2826.231
1081.4587	2864.7991
1082.9525	2830.5618
1084.4464	2743.3582
1085.9402	2776.8149
1087.4341	2773.1787
1088.928	2645.9202
1090.4218	2721.9504
1091.9156	2743.1672
1093.4095	2703.8313
1094.9033	2730.3362
1096.3972	2747.8953
1097.891	2706.1829
1099.3849	2718.4048
1100.8788	2734.8521
1102.3726	2797.5073
1103.8665	2673.6479
1105.3602	2704.0686
1106.8541	2656.2231
1108.348	2727.2646
1109.8418	2693.1321
1111.3357	2669.9607
1112.8295	2687.3928
1114.3234	2697.5063
1115.8173	2716.2861
1117.311	2694.2744
1118.8049	2678.1052
1120.2988	2646.1338
1121.7926	2658.7217
1123.2865	2650.9641
1124.7803	2646.0627
1126.2742	2737.6729
1127.7681	2733.5186
1129.2618	2703.3501
1130.7557	2737.2012
1132.2495	2765.3701
1133.7434	2729.6453
1135.2373	2635.7163
1136.7311	2672.0059
1138.225	2773.4922
1139.7188	2710.6367
1141.2126	2697.052
1142.7065	2676.9851
1144.2003	2682.0168
1145.6942	2716.2314
1147.188	2758.3718
1148.6819	2747.5706
1150.1758	2700.9961
1151.6696	2725.0833
1153.1635	2698.356
1154.6573	2769.9116
1156.1511	2737.8464
1157.645	2718.73
1159.1388	2666.0276
1160.6327	2730.1365
1162.1266	2778.7625
1163.6204	2761.3787
1165.1143	2724.0659
1166.608	2731.9663
1168.1019	2769.5801
1169.5958	2760.8713
1171.0896	2772.3433
1172.5835	2716.8025
1174.0773	2712.2078
1175.5712	2804.0474
1177.0651	2718.3079
1178.5588	2719.4402
1180.0527	2675.4824
1181.5466	2707.6064
1183.0404	2694.7322
1184.5343	2630.4526
1186.0281	2666.634
1187.522	2726.5681
1189.0159	2742.7241
1190.5096	2723.8459
1192.0035	2645.6589
1193.4973	2623.0796
1194.9912	2625.168
1196.4851	2613.9233
1197.9789	2647.832
1199.4728	2613.4741
1200.9666	2600.3054
1202.4604	2599.8689
1203.9543	2582.0439
1205.4481	2584.0957
1206.942	2540.3726
1208.4359	2511.7385
1209.9297	2541.9685
1211.4236	2505.0945
1212.9174	2615.9668
1214.4113	2549.5535
1215.9052	2524.5842
1217.3989	2577.1855
1218.8928	2539.6599
1220.3866	2486.321
1221.8805	2516.0078
1223.3744	2566.877
1224.8682	2566.8945
1226.3621	2533.0618
1227.8558	2462.2395
1229.3497	2517.3137
1230.8436	2424.8152
1232.3374	2523.5635
1233.8313	2463.353
1235.3251	2545.844
1236.819	2570.1775
1238.3129	2507.48
1239.8066	2456.2122
1241.3005	2466.5688
1242.7944	2470.0457
1244.2882	2432.8191
1245.7821	2432.5249
1247.2759	2449.7993
1248.7698	2462.7322
1250.2637	2451.655
1251.7574	2538.8171
1253.2513	2529.1721
1254.7451	2476.6165
1256.239	2535.2883
1257.7329	2550.874
1259.2267	2477.48
1260.7206	2426.4487
1262.2144	2480.571
1263.7083	2550.4312
1265.2021	2545.7043
1266.6959	2570.3567
1268.1898	2643.738
1269.6837	2562.939
1271.1775	2540.9451
1272.6714	2616.2288
1274.1652	2664.533
1275.6591	2639.7839
1277.153	2668.5154
1278.6467	2659.5469
1280.1406	2643.866
1281.6344	2672.2561
1283.1283	2691.0679
1284.6222	2646.9004
1286.116	2617.5364
1287.6099	2659.4368
1289.1036	2626.8931
1290.5975	2589.3213
1292.0914	2633.6587
1293.5852	2625.2742
1295.0791	2676.3782
1296.5729	2667
1298.0668	2629.5554
1299.5607	2578.5325
1301.0544	2537.6846
1302.5483	2581.4006
1304.0422	2619.5583
1305.536	2597.5593
1307.0299	2609.2729
1308.5237	2635.2314
1310.0176	2552.8306
1311.5115	2533.3962
1313.0052	2592.1931
1314.4991	2593.7268
1315.9929	2585.3206
1317.4868	2572.4055
1318.9807	2507.6091
1320.4745	2471.9417
1321.9684	2465
1323.4622	2447.1335
1324.9561	2488.6365
1326.45	2550.4316
1327.9437	2501.8462
1329.4376	2420.2231
1330.9315	2456.9758
1332.4253	2506.4509
1333.9192	2468.0967
1335.413	2367.7358
1336.9069	2415.3665
1338.4008	2420.9917
1339.8945	2383.5928
1341.3884	2415.877
1342.8822	2407.2334
1344.3761	2359.1731
1345.87	2357.0024
1347.3638	2367.3572
1348.8577	2377.8459
1350.3514	2358.5957
1351.8453	2317.7214
1353.3392	2324.6406
1354.833	2358.9714
1356.3269	2358.1692
1357.8207	2406.0715
1359.3146	2349.7705
1360.8085	2397.9426
1362.3022	2436.4658
1363.7961	2381.0579
1365.29	2356.6748
1366.7838	2388.7827
1368.2777	2379.8569
1369.7715	2348.7764
1371.2654	2396.4534
1372.7593	2442.7502
1374.2531	2396.7261
1375.7469	2367.7634
1377.2407	2396.7817
1378.7346	2406.4175
1380.2285	2403.0864
1381.7223	2425.1167
1383.2162	2539.7466
1384.71	2530.3574
1386.2039	2499.7773
1387.6978	2436.9475
1389.1915	2428.47
1390.6854	2501.9409
1392.1793	2477.6719
1393.6731	2463.2349
1395.167	2485.4846
1396.6608	2481.7371
1398.1547	2522.9326
1399.6486	2527.5879
1401.1423	2518.3506
1402.6362	2506.8857
1404.13	2479.0608
1405.6239	2505.2336
1407.1178	2544.9255
1408.6116	2514.5203
1410.1055	2457.667
1411.5992	2526.8762
1413.0931	2507.0342
1414.587	2471.1379
1416.0808	2482.3071
1417.5747	2515.8694
1419.0685	2489.1558
1420.5624	2570.3459
1422.0563	2510.7371
1423.55	2479.6731
1425.0439	2497.3403
1426.5378	2535.1648
1428.0316	2484.1597
1429.5255	2425.6704
1431.0193	2446.7813
1432.5132	2433.3442
1434.0071	2395.7019
1435.5009	2438.5259
1436.9948	2473.2385
1438.4885	2432.8206
1439.9824	2337.9045
1441.4763	2387.5803
1442.9701	2444.5146
1444.464	2384.7842
1445.9578	2288.4346
1447.4517	2369.3311
1448.9456	2403.5476
1450.4393	2407.2627
1451.9332	2364.3923
1453.4271	2369.2146
1454.9209	2355.3948
1456.4148	2296.7505
1457.9086	2280.5732
1459.4025	2287.592
1460.8964	2283.5183
1462.3901	2286.3784
1463.884	2249.499
1465.3778	2229.1028
1466.8717	2239.5557
1468.3656	2212.4709
1469.8594	2193.8311
1471.3533	2266.249
1472.847	2270.926
1474.3409	2233.7864
1475.8348	2193.0151
1477.3286	2229.3857
1478.8225	2310.71
1480.3163	2302.7551
1481.8102	2310.0808
1483.3041	2307.9436
1484.7979	2330.8652
1486.2917	2315.7668
1487.7856	2288.7427
1489.2794	2251.9443
1490.7733	2255.2959
1492.2671	2302.8167
1493.761	2319.8384
1495.2549	2357.7341
1496.7487	2335.9917
1498.2426	2265.4277
1499.7363	2299.1533
1501.2302	2297.9895
1502.7241	2317.6401
1504.2179	2301.8933
1505.7118	2299.0261
1507.2056	2407.1108
1508.6995	2337.0293
1510.1934	2383.2241
1511.6871	2373.2073
1513.181	2369
1514.6749	2314.157
1516.1687	2356.6467
1517.6626	2377.2542
1519.1564	2348.2883
1520.6503	2374.6177
1522.1442	2386.7278
1523.6379	2356.0388
1525.1318	2384.4519
1526.6256	2422.0398
1528.1195	2397.2402
1529.6134	2390.5864
1531.1072	2386.7683
1532.6011	2405.4626
1534.0948	2428.9346
1535.5887	2409.0554
1537.0826	2424.6384
1538.5764	2450.0793
1540.0703	2382.7371
1541.5641	2444.1563
1543.058	2395.7729
1544.5519	2422.0496
1546.0457	2420.6594
1547.5396	2414.2004
1549.0334	2386.9312
1550.5272	2374.7437
1552.0211	2407.2078
1553.5149	2434.4805
1555.0088	2416.1968
1556.5027	2388.8489
1557.9965	2370.48
1559.4904	2379.7107
1560.9841	2410.5081
1562.478	2410.0029
1563.9719	2371.7803
1565.4657	2359.6833
1566.9596	2396.7908
1568.4534	2384.2781
1569.9473	2277.2722
1571.4412	2275.3262
1572.9349	2313.6201
1574.4288	2309.0691
1575.9227	2286.6299
1577.4165	2244.1287
1578.9104	2300.9534
1580.4042	2300.4595
1581.8981	2338.1094
1583.392	2215.6555
1584.8857	2209.8142
1586.3796	2215.2383
1587.8734	2223.5422
1589.3673	2233.04
1590.8612	2270.3962
1592.355	2201.5432
1593.8489	2178.6191
1595.3427	2263.8882
1596.8365	2317.7021
1598.3304	2268.3853
1599.8242	2205.9365
1601.3181	2165.5381
1602.812	2155.563
1604.3058	2205.0254
1605.7997	2248.3655
1607.2935	2276.3079
1608.7874	2309.6262
1610.2813	2271.1384
1611.775	2241.9888
1613.2689	2240.4045
1614.7627	2214.7205
1616.2566	2230.6384
1617.7505	2216.687
1619.2443	2210.9841
1620.7382	2150.2917
1622.2319	2218.4365
1623.7258	2249.4292
1625.2197	2226.6785
1626.7135	2218.1396
1628.2074	2240.4629
1629.7012	2209.7388
1631.1951	2286.8767
1632.689	2249.5945
1634.1827	2255.1716
1635.6766	2218.7849
1637.1705	2203.7791
1638.6643	2219.804
1640.1582	2162.3391
1641.652	2180.4915
1643.1459	2243.6279
1644.6398	2233.1904
1646.1335	2214.4587
1647.6274	2217.2561
1649.1212	2197.343
1650.6151	2193.8748
1652.109	2187.4751
1653.6028	2187.1011
1655.0967	2149.7346
1656.5905	2149.5193
1658.0844	2221.4541
1659.5782	2206.2827
1661.072	2184.2593
1662.5659	2184.9966
1664.0598	2204.5791
1665.5536	2195.218
1667.0475	2219.2634
1668.5413	2208.2249
1670.0352	2149.6367
1671.5291	2173.8389
1673.0228	2171.1406
1674.5167	2146.0908
1676.0105	2140.7373
1677.5044	2170.3904
1678.9983	2188.8982
1680.4921	2117.5891
1681.986	2063.7515
1683.4797	2115.4231
1684.9736	2116.9614
1686.4675	2129.4111
1687.9613	2121.499
1689.4552	2155.2563
1690.949	2126.0889
1692.4429	2121.106
1693.9368	2095.606
1695.4305	2102.2793
1696.9244	2060.4368
1698.4183	2078.7095
1699.9121	2126.8044
1701.406	2054.2649
1702.8998	2031.4476
1704.3937	2040.1205
1705.8876	2058.2534
1707.3813	2065.4124
1708.8752	2056.6785
1710.369	2022.9371
1711.8629	2077.1284
1713.3568	2087.9756
1714.8506	2057.2119
1716.3445	2049.3999
1717.8383	2045.1777
1719.3322	2049.6025
1720.826	2052.696
1722.3198	2018.4934
1723.8137	1989.4161
1725.3076	2019.0145
1726.8014	2063.6445
1728.2953	2048.0869
1729.7891	2018.1633
1731.283	2018.9489
1732.7769	2065.595
1734.2706	2065.0205
1735.7645	2036.1469
1737.2583	2047.4021
1738.7522	2040.3556
1740.2461	2017.4478
1741.7399	2013.2211
1743.2338	2011.4769
1744.7275	2019.8
1746.2214	2005.579
1747.7153	2001.5754
1749.2091	2001.2261
1750.703	2005.4058
1752.1968	2062.1245
1753.6907	2094.209
1755.1846	2023.6381
1756.6783	2050.6609
1758.1722	2082.947
1759.6661	2055.1594
1761.1599	2070.4158
1762.6538	2081.3752
1764.1476	2052.3337
1765.6415	2084.9734
1767.1354	2105.3442
1768.6292	2079.4849
1770.123	2103.7161
1771.6168	2061.4634
1773.1107	2068.7148
1774.6046	2069.5305
1776.0984	2053.2358
1777.5923	2089.97
1779.0861	2079.1052
1780.58	2104.9785
1782.0739	2047.537
1783.5676	2074.7969
1785.0615	2052.5342
1786.5554	2061.2612
1788.0492	2080.7524
1789.5431	2018.0261
1791.0369	2032.8585
1792.5308	2084.2305
1794.0247	2082.6606
1795.5184	2045.0249
1797.0123	2036.7094
1798.5061	2017.209
1800	1992.3877
1801.4939	2017.3041
1802.9877	1988.0676
1804.4816	1992.9109
1805.9753	1992.2435
1807.4692	2065.9229
1808.9631	2004.0286
1810.4569	2000.9316
1811.9508	1981.9443
1813.4446	2010.3723
1814.9385	1982.1619
1816.4324	1983.7722
1817.9261	1935.691
1819.42	1937.4993
1820.9139	2034.476
1822.4077	1974.8291
1823.9016	1902.6497
1825.3954	1894.8872
1826.8893	1929.5504
1828.3832	1957.4249
1829.877	1969.1857
1831.3708	1928.5413
1832.8646	1900.6003
1834.3585	1850.714
1835.8524	1871.3477
1837.3462	1960.3434
1838.8401	1987.9484
1840.3339	1978.769
1841.8278	1941.8375
1843.3217	1923.8251
1844.8154	1951.6864
1846.3093	1936.9293
1847.8032	1924.5693
1849.297	1895.0079
1850.7909	1887.3281
1852.2847	1941.4305
1853.7786	1945.7844
1855.2725	1952.7734
1856.7662	1952.6029
1858.2601	1919.7993
1859.7539	1899.0521
1861.2478	1869.9961
1862.7417	1894.7434
1864.2355	1904.4982
1865.7294	1864.9032
1867.2231	1873.6455
1868.717	1890.5264
1870.2109	1891.6094
1871.7047	1860.1783
1873.1986	1876.1904
1874.6924	1905.1169
1876.1863	1902.8569
1877.6802	1934.5729
1879.174	1948.6978
1880.6678	1962.0472
1882.1617	1976.1334
1883.6555	1949.4044
1885.1494	1938.2853
1886.6432	1924.2124
1888.1371	1937.0856
1889.631	1985.8597
1891.1248	2017.546
1892.6187	1984.4226
1894.1124	1968.7461
1895.6063	1969.9351
1897.1002	1962.2922
1898.594	1992
1900.0879	1985.1757
1901.5817	1972.4858
1903.0756	1963.9545
1904.5695	1981.5673
1906.0632	2016.4363
1907.5571	1983.1484
1909.051	1976.6268
1910.5448	2006.7301
1912.0387	1983.671
1913.5325	1962.6278
1915.0264	1980
1916.5203	1959.0187
1918.014	1914.6515
1919.5079	1930.7085
1921.0017	1994.9741
1922.4956	1971.6903
1923.9895	1928.0071
1925.4833	1953.7909
1926.9772	1921.8032
1928.4709	1892.2316
1929.9648	1907.4348
1931.4587	1958.755
1932.9525	1950.8621
1934.4464	1930.5332
1935.9402	1952.2937
1937.4341	1912.556
1938.928	1875.6678
1940.4218	1843.2968
1941.9156	1842.7198
1943.4095	1865.8391
1944.9033	1873.2388
1946.3972	1846.2229
1947.891	1839.5089
1949.3849	1836.2701
1950.8788	1838.0804
1952.3726	1837
1953.8665	1828.0374
1955.3602	1815.613
1956.8541	1807.6846
1958.348	1784.8562
1959.8418	1795.8046
1961.3357	1820.9711
1962.8295	1792.484
1964.3234	1773.1396
1965.8173	1753.4027
1967.311	1759.6676
1968.8049	1769.4221
1970.2988	1776.7258
1971.7926	1749.0623
1973.2865	1732.6307
1974.7803	1764.1743
1976.2742	1771.1925
1977.7681	1771.7175
1979.2618	1758.8323
1980.7557	1720.6362
1982.2495	1748.6971
1983.7434	1766.9648
1985.2373	1741.2528
1986.7311	1726.1179
1988.225	1723.3428
1989.7188	1731.6785
1991.2126	1771.2625
1992.7065	1745.9812
1994.2003	1760.5889
1995.6942	1784.9518
1997.188	1759.3934
1998.6819	1793.4783
2000.1758	1780.1946
2001.6696	1752.5903
2003.1635	1802.3621
2004.6573	1828.3735
2006.1511	1788.1532
2007.645	1772.1639
2009.1388	1723.5166
2010.6327	1801.1467
2012.1266	1839.2716
2013.6204	1756.3523
2015.1143	1803.8634
2016.608	1807.6844
2018.1019	1800.7007
2019.5958	1810.0521
2021.0896	1814.712
2022.5835	1822.5383
2024.0773	1790.4686
2025.5712	1874.4919
2027.0651	1776.3907
2028.5588	1818.0564
2030.0527	1840.1067
2031.5466	1845.7673
2033.0404	1842.1718
2034.5343	1902.2556
2036.0281	1880.8722
2037.522	1916.3922
2039.0159	1839.0544
2040.5096	1850.5581
2042.0035	1831.3289
2043.4973	1885.2115
2044.9912	1848.1564
2046.4851	1823.1827
2047.9789	1859.6547
2049.4727	1851.5438
2050.9666	1883.3536
2052.4604	1901.7422
2053.9543	1894.45
2055.4482	1900.1636
2056.9419	1891.8942
2058.4358	1867.7738
2059.9297	1862.3778
2061.4236	1842.4586
2062.9175	1829.0627
2064.4111	1825.3308
2065.905	1839.3312
2067.3989	1862.5112
2068.8928	1873.0872
2070.3867	1832.2739
2071.8804	1833.5414
2073.3743	1817.4937
2074.8682	1783.3098
2076.3621	1780.1809
2077.856	1810.3516
2079.3499	1794.1635
2080.8435	1777.2764
2082.3374	1763.4147
2083.8313	1795.8885
2085.3252	1763.1438
2086.8191	1771.5663
2088.3127	1741.8621
2089.8066	1741.8613
2091.3005	1779.1752
2092.7944	1748.4714
2094.2883	1709.1488
2095.782	1722.5878
2097.2759	1635.0542
2098.7698	1683.8599
2100.2637	1755.9528
2101.7576	1643.1022
2103.2512	1669.3684
2104.7451	1717.1281
2106.239	1717.772
2107.7329	1667.6368
2109.2268	1696.1333
2110.7205	1684.5895
2112.2144	1662.5618
2113.7083	1696.0679
2115.2021	1689.6641
2116.696	1662.5942
2118.1897	1609.5728
2119.6836	1637.8787
2121.1775	1659.7231
2122.6714	1654.5649
2124.1653	1660.2635
2125.6589	1632.0477
2127.1528	1647.8693
2128.6467	1666.2946
2130.1406	1671.2959
2131.6345	1599.7766
2133.1282	1581.0587
2134.6221	1626.734
2136.116	1684.4906
2137.6099	1632.7434
2139.1038	1644.6937
2140.5977	1656.7008
2142.0913	1642.245
2143.5852	1672.241
2145.0791	1672.0886
2146.573	1718.3966
2148.0669	1692.1724
2149.5605	1635.3174
2151.0544	1646.9623
2152.5483	1712.4613
2154.0422	1683.2347
2155.5361	1673.0304
2157.0298	1715.8586
2158.5237	1674.3284
2160.0176	1636.0327
2161.5115	1665.004
2163.0054	1666.1724
2164.499	1700.6843
2165.9929	1664.5703
2167.4868	1679.0519
2168.9807	1700.35
2170.4746	1752.829
2171.9683	1764.4059
2173.4622	1709.4872
2174.9561	1718.4694
2176.45	1767.8706
2177.9438	1716.1234
2179.4375	1724.5205
2180.9314	1771.0576
2182.4253	1740.4757
2183.9192	1708.0614
2185.4131	1731.4446
2186.9067	1742.0669
2188.4006	1728.891
2189.8945	1776.26
2191.3884	1764.9825
2192.8823	1786.184
2194.376	1759.9863
2195.8699	1808.6047
2197.3638	1771.7261
2198.8577	1765.0149
2200.3516	1756.4502
2201.8455	1743.3053
2203.3391	1773
2204.833	1779.791
2206.3269	1798.7552
2207.8208	1742.7218
2209.3147	1844.4475
2210.8083	1801.4446
2212.3022	1762.6641
2213.7961	1754.7765
2215.29	1778.1893
2216.7839	1796.7534
2218.2776	1805.5759
2219.7715	1790.3838
2221.2654	1789.4176
2222.7593	1812.6084
2224.2532	1798.9924
2225.7468	1735.0557
2227.2407	1743.9154
2228.7346	1731.2865
2230.2285	1688.7164
2231.7224	1706.9797
2233.2161	1708.2778
2234.71	1718.4401
2236.2039	1743.8009
2237.6978	1670.5028
2239.1917	1712.312
2240.6853	1704.1191
2242.1792	1701.585
2243.6731	1683.7946
2245.167	1664.3427
2246.6609	1627.3219
2248.1545	1663.9152
2249.6484	1658.8281
2251.1423	1675.3562
2252.6362	1699.6707
2254.1301	1684.5917
2255.624	1635.2328
2257.1177	1632.1782
2258.6116	1632.8885
2260.1055	1618.3596
2261.5994	1626.5071
2263.0933	1628.8615
2264.5869	1572.3666
2266.0808	1592.5734
2267.5747	1603.4612
2269.0686	1642.7611
2270.5625	1583.6014
2272.0562	1619.9373
2273.55	1610.828
2275.0439	1548.3052
2276.5378	1573.1875
2278.0317	1594.6798
2279.5254	1566.6678
2281.0193	1535.2289
2282.5132	1534.4882
2284.0071	1528.8961
2285.501	1509.7747
2286.9946	1554.3729
2288.4885	1536.6685
2289.9824	1516.1359
2291.4763	1542.5024
2292.9702	1533.7299
2294.4639	1576.0225
2295.9578	1567.1315
2297.4517	1528.2559
2298.9456	1469.3765
2300.4395	1584.1689
2301.9331	1545.3081
2303.427	1530.4738
2304.9209	1555.074
2306.4148	1653.2539
2307.9087	1570.7559
2309.4023	1550.1622
2310.8962	1518.7068
2312.3901	1527.3019
2313.884	1530.6736
2315.3779	1542.4377
2316.8718	1556.364
2318.3655	1539.6664
2319.8594	1495.1353
2321.3533	1563.8933
2322.8472	1505.2827
2324.3411	1565.4531
2325.8347	1583.8857
2327.3286	1568.0321
2328.8225	1567
2330.3164	1607.6071
2331.8103	1597.7037
2333.304	1574.6479
2334.7979	1565.3552
2336.2917	1578.4459
2337.7856	1562.6295
2339.2795	1579.832
2340.7732	1523.9077
2342.2671	1574.233
2343.761	1572.7667
2345.2549	1589.4594
2346.7488	1607.6814
2348.2424	1584.0565
2349.7363	1588.4609
2351.2302	1622.9424
2352.7241	1593.2312
2354.218	1571.8577
2355.7117	1541.0841
2357.2056	1551.4855
2358.6995	1588.8329
2360.1934	1607.5341
2361.6873	1586.2985
2363.1809	1618.5608
2364.6748	1596.9656
2366.1687	1599.1067
2367.6626	1652.5795
2369.1565	1610.5217
2370.6501	1597.834
2372.144	1611.3611
2373.6379	1636.7306
2375.1318	1586.6925
2376.6257	1639.4457
2378.1196	1616.5834
2379.6133	1566.4692
2381.1072	1695.9451
2382.6011	1661.5143
2384.095	1635.5497
2385.5889	1576.4708
2387.0825	1603.2402
2388.5764	1633.8479
2390.0703	1621.5955
2391.5642	1621
2393.0581	1664.5573
2394.5518	1684.5531
2396.0457	1658.8281
2397.5396	1636.8324
2399.0334	1648.2936
2400.5273	1625.7927
2402.021	1649.3481
2403.5149	1667.6808
2405.0088	1627.2109
2406.5027	1650.9166
2407.9966	1640.4633
2409.4902	1667.6356
2410.9841	1652.0939
2412.478	1633.5555
2413.9719	1605.2316
2415.4658	1600.6431
2416.9595	1566.8596
2418.4534	1608.4606
2419.9473	1630.455
2421.4412	1617.911
2422.9351	1628.7531
2424.4287	1633.72
2425.9226	1562.808
2427.4165	1678.9585
2428.9104	1615.6508
2430.4043	1643.6588
2431.8979	1609.9213
2433.3918	1663.9087
2434.8857	1673.7526
2436.3796	1597.0001
2437.8735	1622.1649
2439.3674	1629.5576
2440.8611	1628.2976
2442.355	1572.8148
2443.8489	1609.6691
2445.3428	1643.2439
2446.8367	1688.5194
2448.3303	1587.6783
2449.8242	1682.7821
2451.3181	1622.9174
2452.812	1595.7704
2454.3059	1591.6873
2455.7996	1574.295
2457.2935	1573.5859
2458.7874	1616.8088
2460.2813	1639.5901
2461.7751	1651.9287
2463.2688	1618.9994
2464.7627	1592.0469
2466.2566	1665.7687
2467.7505	1654.0035
2469.2444	1545.6147
2470.738	1541.3228
2472.2319	1604.8275
2473.7258	1583.921
2475.2197	1604.551
2476.7136	1556.8566
2478.2073	1556.9353
2479.7012	1574.0682
2481.1951	1569.8511
2482.689	1567.9794
2484.1829	1573.6637
2485.6765	1571.2894
2487.1704	1535.6255
2488.6643	1673.3229
2490.1582	1588.726
2491.6521	1618.3805
2493.1458	1573.4849
2494.6396	1593.7468
2496.1335	1552.4358
2497.6274	1578.1888
2499.1213	1624.608
2500.6152	1585.2808
2502.1089	1548.4943
2503.6028	1594.5122
2505.0967	1591.7435
2506.5906	1545.6655
2508.0845	1554.3849
2509.5781	1576.6964
2511.072	1606.9441
2512.5659	1591.9607
2514.0598	1585.2637
2515.5537	1582.1932
2517.0474	1587.5
2518.5413	1570.7406
2520.0352	1594.736
2521.5291	1589.2261
2523.0229	1604.9072
2524.5166	1569.2766
2526.0105	1549.2147
2527.5044	1600.8176
2528.9983	1527.2568
2530.4922	1581.5016
2531.9858	1577.266
2533.4797	1594.5947
2534.9736	1575.8038
2536.4675	1560.345
2537.9614	1564.0549
2539.4551	1575.4434
2540.949	1535.1333
2542.4429	1596.9807
2543.9368	1612.8717
2545.4307	1536.6932
2546.9243	1588.5302
2548.4182	1601.9917
2549.9121	1617.0317
2551.406	1586.0364
2552.8999	1545.4799
2554.3936	1557.4216
2555.8875	1584.2777
2557.3813	1628.5356
2558.8752	1684.4124
2560.3691	1576.5149
2561.863	1589.0242
2563.3567	1675.4299
2564.8506	1607.132
2566.3445	1553.5933
2567.8384	1641.5675
2569.3323	1659.4458
2570.8259	1642.0585
2572.3198	1593.485
2573.8137	1567.5917
2575.3076	1620.9614
2576.8015	1569.8119
2578.2952	1651.2297
2579.7891	1619.9132
2581.283	1644.7446
2582.7769	1610.9039
2584.2708	1588.071
2585.7644	1593.8674
2587.2583	1616.4332
2588.7522	1607.7367
2590.2461	1602.4954
2591.74	1616.8118
2593.2336	1629.9694
2594.7275	1558.819
2596.2214	1628.8174
2597.7153	1575.9088
2599.2092	1615.5085
2600.7029	1607.9653
2602.1968	1636.0726
2603.6907	1637.4136
2605.1846	1647.8309
2606.6785	1595.9767
2608.1721	1586.528
2609.666	1604.8254
2611.1599	1663.512
2612.6538	1627.3534
2614.1477	1570.9268
2615.6414	1602.8252
2617.1353	1674.9807
2618.6292	1634.9213
2620.123	1609.2396
2621.6169	1613.881
2623.1108	1627.2223
2624.6045	1653.3318
2626.0984	1658.0074
2627.5923	1583.2661
2629.0862	1669.7393
2630.5801	1632.9059
2632.0737	1628.9948
2633.5676	1608.4567
2635.0615	1607.6322
2636.5554	1613.1991
2638.0493	1613.5116
2639.543	1598.8689
2641.0369	1611.5243
2642.5308	1634.1901
2644.0247	1612.7292
2645.5186	1637.7871
2647.0122	1625.6554
2648.5061	1591.939
2650	1595.4897
2651.4939	1647.374
2652.9878	1627.1246
2654.4814	1616.2198
2655.9753	1647.6542
2657.4692	1604.4177
2658.9631	1653.1451
2660.457	1650.7886
2661.9507	1590.0883
2663.4446	1611.2881
2664.9385	1583.0248
2666.4324	1625.5577
2667.9263	1631.2871
2669.4199	1659.3142
2670.9138	1624.4801
2672.4077	1640.427
2673.9016	1595.1897
2675.3955	1620.8213
2676.8892	1633.6453
2678.3831	1613.7736
2679.877	1630.3804
2681.3708	1624.3337
2682.8647	1575.9077
2684.3586	1635.6648
2685.8523	1631.5823
2687.3462	1656.5791
2688.8401	1606.8705
2690.334	1641.2621
2691.8279	1606.9841
2693.3215	1583.0724
2694.8154	1600.149
2696.3093	1635.948
2697.8032	1651.795
2699.2971	1644.4563
2700.7908	1625.8634
2702.2847	1577.1481
2703.7786	1611.9503
2705.2725	1605.4183
2706.7664	1650.6754
2708.26	1654.4199
2709.7539	1611.4587
2711.2478	1593.423
2712.7417	1656.8676
2714.2356	1618.649
2715.7292	1622.1584
2717.2231	1633.7448
2718.717	1640.0347
2720.2109	1607.5728
2721.7048	1603.8975
2723.1985	1596.1223
2724.6924	1621.7502
2726.1863	1604.3112
2727.6802	1608.5634
2729.1741	1597.3278
2730.6677	1616.6104
2732.1616	1634.3149
2733.6555	1623.4054
2735.1494	1591.9983
2736.6433	1610.2395
2738.137	1632.1228
2739.6309	1556.4695
2741.1248	1639.0387
2742.6187	1674.1798
2744.1125	1649.939
2745.6064	1588.701
2747.1001	1627.1295
2748.594	1610.9182
2750.0879	1594.2863
2751.5818	1605.197
2753.0757	1582.5122
2754.5693	1617.8236
2756.0632	1595.0145
2757.5571	1603.9854
2759.051	1603.9332
2760.5449	1606.8677
2762.0386	1631.84
2763.5325	1603.2181
2765.0264	1614.0797
2766.5203	1605.1777
2768.0142	1629.3446
2769.5078	1591.8102
2771.0017	1625.3949
2772.4956	1617.3986
2773.9895	1598.2999
2775.4834	1604.0077
2776.9771	1597.0546
2778.4709	1648.9105
2779.9648	1590.502
2781.4587	1615.3363
2782.9526	1570.3588
2784.4463	1584.0027
2785.9402	1597.9082
2787.4341	1602.4924
2788.928	1549.7946
2790.4219	1552.1825
2791.9155	1603.7881
2793.4094	1622.5062
2794.9033	1569.7119
2796.3972	1568.5914
2797.8911	1605.6719
2799.3848	1597.8517
2800.8787	1620.0173
2802.3726	1590.2833
2803.8665	1570.4937
2805.3604	1569.0756
2806.8542	1652.1315
2808.3479	1581.8862
2809.8418	1551.6271
2811.3357	1557.0741
2812.8296	1565.8937
2814.3235	1563.5299
2815.8171	1593.2291
2817.311	1590.6068
2818.8049	1586.2518
2820.2988	1600.2089
2821.7927	1580.5402
2823.2864	1556.7847
2824.7803	1541.1085
2826.2742	1548.822
2827.7681	1543.1333
2829.262	1603.8013
2830.7556	1575.356
2832.2495	1600.1844
2833.7434	1608.899
2835.2373	1582.3839
2836.7312	1578.5472
2838.2249	1555.4064
2839.7188	1554.6721
2841.2126	1527.9829
2842.7065	1598.8964
2844.2004	1550.9268
2845.6941	1533.9517
2847.188	1535.4371
2848.6819	1542.8276
2850.1758	1570.2335
2851.6697	1550.4634
2853.1633	1570.6644
2854.6572	1606.575
2856.1511	1596.5302
2857.645	1583.2019
2859.1389	1592.9382
2860.6326	1559.1858
2862.1265	1556.771
2863.6204	1568.7017
2865.1143	1573.4683
2866.6082	1605.4282
2868.1021	1572.6573
2869.5957	1561.7808
2871.0896	1586.9597
2872.5835	1580.9375
2874.0774	1541.7006
2875.5713	1551.2047
2877.0649	1583.6073
2878.5588	1576.7982
2880.0527	1552.8445
2881.5466	1544.2188
2883.0405	1551.6431
2884.5342	1556.6079
2886.0281	1519.3937
2887.522	1554.9667
2889.0159	1554.3149
2890.5098	1496.962
2892.0034	1582.5349
2893.4973	1547.7089
2894.9912	1557.8795
2896.4851	1565.9441
2897.979	1578.9824
2899.4727	1569.4623
2900.9666	1540.1206
2902.4604	1551.3961
2903.9543	1541.2737
2905.4482	1530.9027
2906.9419	1539.8292
2908.4358	1545.1473
2909.9297	1563.8578
2911.4236	1569.6954
2912.9175	1549.7183
2914.4111	1578.8816
2915.905	1565.8934
2917.3989	1532.0853
2918.8928	1549.3772
2920.3867	1565.8193
2921.8804	1539.2954
2923.3743	1532.2145
2924.8682	1527.2777
2926.3621	1502.65
2927.856	1541.9465
2929.3499	1570.6205
2930.8435	1552.1884
2932.3374	1536.2595
2933.8313	1563.3989
2935.3252	1538.3738
2936.8191	1576.6256
2938.3127	1563.7281
2939.8066	1564.1493
2941.3005	1594.7039
2942.7944	1543.6093
2944.2883	1549.4749
2945.782	1554.3105
2947.2759	1542.1187
2948.7698	1542.6096
2950.2637	1552.9814
2951.7576	1516.0907
2953.2512	1559.9949
2954.7451	1601.6096
2956.239	1546.7253
2957.7329	1545.3993
2959.2268	1552.3518
2960.7205	1543.6166
2962.2144	1540.3771
2963.7083	1517.6539
2965.2021	1538.8163
2966.696	1538.3562
2968.1897	1550.5574
2969.6836	1524.2833
2971.1775	1509.2843
2972.6714	1527.988
2974.1653	1547.9758
2975.6589	1514.71
2977.1528	1542.2596
2978.6467	1548.2997
2980.1406	1504.8853
2981.6345	1549.8723
2983.1282	1528.3257
2984.6221	1536.6718
2986.116	1525.3392
2987.6099	1546.6429
2989.1038	1519.7573
2990.5977	1534.2285
2992.0913	1548.8365
2993.5852	1568.6888
2995.0791	1528.3839
2996.573	1495.8033
2998.0669	1551.3198
2999.5605	1511.3846
3001.0544	1535.8755
3002.5483	1534.4548
3004.0422	1509.0049
3005.5361	1573.646
3007.0298	1571.3553
3008.5237	1543.2673
3010.0176	1554.1331
3011.5115	1529.5105
3013.0054	1522.5737
3014.499	1488.7656
3015.9929	1537.3809
3017.4868	1566.7866
3018.9807	1503.3192
3020.4746	1537.2789
3021.9683	1533.7524
3023.4622	1490.1086
3024.9561	1489.9528
3026.45	1544.6066
3027.9438	1523.9471
3029.4375	1539.5333
3030.9314	1520.5406
3032.4253	1554.3834
3033.9192	1521.0476
3035.4131	1535.127
3036.9067	1561.224
3038.4006	1520.9962
3039.8945	1547.613
3041.3884	1558.8177
3042.8823	1535.405
3044.376	1507.7959
3045.8699	1479.5756
3047.3638	1509.0585
3048.8577	1573.2255
3050.3516	1580.8741
3051.8455	1546.8096
3053.3391	1509.1124
3054.833	1508.6672
3056.3269	1550.8319
3057.8208	1548.9967
3059.3147	1479.0302
3060.8083	1517.2772
3062.3022	1496.6595
3063.7961	1492.4541
3065.29	1528.0427
3066.7839	1559.0028
3068.2776	1507.7163
3069.7715	1474.421
3071.2654	1503.0415
3072.7593	1480.9507
3074.2532	1568.7139
3075.7468	1498.3184
3077.2407	1515.3347
3078.7346	1513.2947
3080.2285	1511.5254
3081.7224	1501.7726
3083.2161	1478.01
3084.71	1491.4901
3086.2039	1455.3658
3087.6978	1494.3046
3089.1917	1495.6859
3090.6853	1474.3884
3092.1792	1524.0284
3093.6731	1569.9087
3095.167	1464.7465
3096.6609	1513.6797
3098.1545	1500.3308
3099.6484	1504.2393
3101.1423	1508.6368
3102.6362	1541.5375
3104.1301	1555.2996
3105.624	1524.9406
3107.1177	1474.1294
3108.6116	1445.3412
3110.1055	1502.2361
3111.5994	1441.6945
3113.0933	1519.4712
3114.5869	1508.2037
3116.0808	1475.6265
3117.5747	1476.933
3119.0686	1503.2415
3120.5625	1441.6632
3122.0562	1542.0144
3123.55	1554.1608
3125.0439	1542.917
3126.5378	1542.448
3128.0317	1440.2893
3129.5254	1567.8691
3131.0193	1500.7396
3132.5132	1475.9968
3134.0071	1440.4075
3135.501	1421.6907
3136.9946	1461.1082
3138.4885	1460.5371
3139.9824	1485.2242
3141.4763	1527.6807
3142.9702	1509.5863
3144.4639	1478.1873
3145.9578	1444.7943
3147.4517	1513.109
3148.9456	1516.8824
3150.4395	1502.2249
3151.9331	1478.5385
3153.427	1530.8073
3154.9209	1477.7292
3156.4148	1454.4613
3157.9087	1477.0377
3159.4023	1469.1771
3160.8962	1503.3154
3162.3901	1536.6426
3163.884	1528.0493
3165.3779	1523.7209
3166.8718	1482.2002
3168.3655	1538.1198
3169.8594	1567.7452
3171.3533	1452.5978
3172.8472	1422.4736
3174.3411	1471.9043
3175.8347	1519.338
3177.3286	1488.5825
3178.8225	1513.8883
3180.3164	1493.0631
3181.8103	1459.9231
3183.304	1529.2738
3184.7979	1522.0825
3186.2917	1491.9116
3187.7856	1500.9474
3189.2795	1486.4453
3190.7732	1423.5226
3192.2671	1432.4598
3193.761	1470.9791
3195.2549	1451.2858
3196.7488	1484.007
3198.2424	1479.312
3199.7363	1458.8551
3201.2302	1503.2067
3202.7241	1505.5596
3204.218	1494.3789
3205.7117	1476.8502
3207.2056	1488.1909
3208.6995	1470.6996
3210.1934	1518.7081
3211.6873	1489.5104
3213.1809	1476.0116
3214.6748	1451.7437
3216.1687	1450.6917
3217.6626	1485.4225
3219.1565	1507.583
3220.6501	1485.0292
3222.144	1452.379
3223.6379	1418.0469
3225.1318	1469.0381
3226.6257	1446.6107
3228.1196	1459.3781
3229.6133	1485.2679
3231.1072	1475.2764
3232.6011	1454.7788
3234.095	1487.5359
3235.5889	1458.8192
3237.0825	1449.7451
3238.5764	1479.2885
3240.0703	1470.9397
3241.5642	1465.3436
3243.0581	1449.88
3244.5518	1431.7551
3246.0457	1499.8331
3247.5396	1465.0338
3249.0334	1417.1721
3250.5273	1420.5775
3252.021	1466.1288
3253.5149	1467.932
3255.0088	1511.5057
3256.5027	1454.9728
3257.9966	1431.9656
3259.4902	1478.9388
3260.9841	1452.4569
3262.478	1474.2275
3263.9719	1430.184
3265.4658	1467.4564
3266.9595	1443.8065
3268.4534	1450.2588
3269.9473	1421.6162
3271.4412	1491.1908
3272.9351	1431.3003
3274.4287	1489.54
3275.9226	1506.2297
3277.4165	1425.8491
3278.9104	1453.8394
3280.4043	1450.3021
3281.8979	1434.2122
3283.3918	1477.9609
3284.8857	1449.892
3286.3796	1485.0403
3287.8735	1484.3212
3289.3674	1415.8046
3290.8611	1456.876
3292.355	1421.7177
3293.8489	1420.8195
3295.3428	1407.517
3296.8367	1420.5973
3298.3303	1443.114
3299.8242	1463.0476
3301.3181	1465.9438
3302.812	1432.6355
3304.3059	1445.673
3305.7996	1438.8967
3307.2935	1444.7435
3308.7874	1458.7144
3310.2813	1379.2823
3311.7751	1497.3783
3313.2688	1433.2817
3314.7627	1393.3156
3316.2566	1438.6791
3317.7505	1445.0466
3319.2444	1427.2318
3320.738	1436.715
3322.2319	1426.6949
3323.7258	1455.1868
3325.2197	1410.7606
3326.7136	1436.9126
3328.2073	1434.4376
3329.7012	1434.017
3331.1951	1417.963
3332.689	1459.4155
3334.1829	1471.613
3335.6765	1446.2228
3337.1704	1443.2429
3338.6643	1396.0481
3340.1582	1458.8151
3341.6521	1433.0056
3343.1458	1397.7028
3344.6396	1391.3633
3346.1335	1435.8439
3347.6274	1455.6184
3349.1213	1413.3503
3350.6152	1402.0106
3352.1089	1426.8752
3353.6028	1426.0809
3355.0967	1366.0306
3356.5906	1431.2015
3358.0845	1395.45
3359.5781	1424.0885
3361.072	1381.4849
3362.5659	1422.5583
3364.0598	1439.4592
3365.5537	1426.3917
3367.0474	1408.4066
3368.5413	1361.8367
3370.0352	1387.5399
3371.5291	1373.865
3373.0229	1388.2969
3374.5166	1390.1439
3376.0105	1369.1973
3377.5044	1417.3582
3378.9983	1409.0448
3380.4922	1452.4164
3381.9858	1467.8408
3383.4797	1395.6548
3384.9736	1360.3462
3386.4675	1447.0397
3387.9614	1411.7936
3389.4551	1430.0066
3390.949	1409.6903
3392.4429	1393.1274
3393.9368	1445.1681
3395.4307	1462.4454
3396.9243	1387.6812
3398.4182	1386.3433
3399.9121	1395.6927
3401.406	1444.5265
3402.8999	1426.7672
3404.3936	1448.6158
3405.8875	1412.1743
3407.3813	1418.5917
3408.8752	1415.0516
3410.3691	1413.4266
3411.863	1402.7662
3413.3567	1410.6764
3414.8506	1386.135
3416.3445	1375.9585
3417.8384	1404.9138
3419.3323	1321.0977
3420.8259	1376.2158
3422.3198	1408.889
3423.8137	1432.2538
3425.3076	1426.0914
3426.8015	1424.8442
3428.2952	1389.0416
3429.7891	1381.0276
3431.283	1380.3289
3432.7769	1460.7604
3434.2708	1377.4988
3435.7644	1391.2499
3437.2583	1372.5276
3438.7522	1375.9211
3440.2461	1402.9315
3441.74	1379.0007
3443.2336	1382.0571
3444.7275	1384.8523
3446.2214	1417.8022
3447.7153	1422.2203
3449.2092	1381.5867
3450.7029	1367.4735
3452.1968	1367.827
3453.6907	1402.7189
3455.1846	1445.8784
3456.6785	1413.4309
3458.1721	1443.5341
3459.666	1398.1688
3461.1599	1463.2687
3462.6538	1433.8455
3464.1477	1334.7872
3465.6414	1378.0269
3467.1353	1370.5015
3468.6292	1346.4222
3470.123	1355.6719
3471.6169	1355.3112
3473.1108	1410.0195
3474.6045	1433.5763
3476.0984	1389.1051
3477.5923	1399.5103
3479.0862	1381.6046
3480.5801	1377.4183
3482.0737	1344.9518
3483.5676	1330.1959
3485.0615	1359.9265
3486.5554	1356.5192
3488.0493	1331.8081
3489.543	1338.0507
3491.0369	1327.2622
3492.5308	1442.6324
3494.0247	1346.829
3495.5186	1351.9147
3497.0122	1344.8302
3498.5061	1352.9935
3500	1366.6598
