100	8181.5259
101.49385	8200.2002
102.9877	8373.7168
104.48154	8410.3369
105.9754	8323.4219
107.46925	8167.2305
108.9631	7982.7783
110.45694	7807.0459
111.95079	7702.1069
113.44464	7627.9819
114.93849	7483.6504
116.43233	7175.3521
117.92619	7265.6357
119.42004	7372.1362
120.91389	7402.3159
122.40773	7327.7422
123.90158	7151.0527
125.39543	6888.1284
126.88928	6678.8428
128.38313	6639.6367
129.87698	6564.6699
131.37082	6405.4893
132.86467	6398.4272
134.35852	6264.7983
135.85237	6180.479
137.34622	6077.0884
138.84007	5946.6597
140.33392	5830.5986
141.82777	5846.9077
143.32161	5879.5718
144.81546	5905.6938
146.30931	5909.77
147.80316	5875.8022
149.29701	5782.7686
150.79086	5570.1299
152.28471	5605.0327
153.77856	5625.1909
155.27242	5540.6436
156.76625	5436.0596
158.2601	5436.876
159.75395	5396.0981
161.2478	5398.416
162.74165	5318.6021
164.2355	5141.3203
165.72935	5288.4751
167.22321	5382.5205
168.71704	5356.0645
170.21089	5301.1172
171.70474	5296.5845
173.19859	5384.8398
174.69244	5517.4097
176.18629	5572.6084
177.68015	5645.7563
179.174	5715.1826
180.66783	5737.0044
182.16168	5698.4683
183.65553	5674.938
185.14938	5839.0117
186.64323	5923.4058
188.13708	5892.4487
189.63094	5919.042
191.12479	6115.7876
192.61862	6189.6851
194.11247	6402.147
195.60632	6627.1836
197.10017	6736.4497
198.59402	6792.3022
200.08788	6925.8936
201.58173	6751.916
203.07558	6400.3833
204.56943	6048.2227
206.06326	5816.3257
207.55711	5456.2134
209.05096	5289.2358
210.54482	5196.4976
212.03867	5099.21
213.53252	4990.1465
215.02637	4947.7065
216.52022	4938.6538
218.01405	4980.0068
219.5079	5019.3091
221.00175	5027.5117
222.49561	5007.8105
223.98946	5024.2827
225.48331	4834.5474
226.97716	4674.4312
228.47101	4666.5586
229.96484	4694.7544
231.45869	4532.3672
232.95255	4413.6499
234.4464	4420.4097
235.94025	4361.604
237.4341	4233.2188
238.92795	4132.21
240.4218	4220.3779
241.91563	4231.9312
243.40948	4288.8198
244.90334	4256.2778
246.39719	4181.6436
247.89104	4161.8403
249.38489	4236.9946
250.87874	4213.3022
252.37259	4185.6143
253.86644	4121.1587
255.36028	4075.2708
256.85413	4114.9658
258.34799	4099.2588
259.84183	3999.2405
261.33566	4043.0547
262.82953	4089.8052
264.32336	4075.7312
265.81723	4054.2551
267.31107	3995.5042
268.80493	4008.9116
270.29877	4024.6794
271.79263	4015.9434
273.28647	3977.3193
274.7803	3926.4482
276.27417	3991.0552
277.76801	3951.8262
279.26187	3951.1667
280.75571	3965.1162
282.24957	3958.0476
283.74341	3987.0667
285.23724	4060.0286
286.73111	4030.1814
288.22495	4059.7527
289.71881	4103.8853
291.21265	4073.7061
292.70651	4038.0273
294.20035	4041.03
295.69421	3977.8335
297.18805	3967.0425
298.68188	4000.8391
300.17575	4001.3242
301.66959	3944.0159
303.16345	3890.6904
304.65729	3925.7168
306.15115	3945.2568
307.64499	3937.5742
309.13885	3957.4902
310.63269	3999.0103
312.12653	3961.103
313.62039	4008.7249
315.11423	4072.7979
316.60809	4073.2339
318.10193	3987.4827
319.59579	3999.9507
321.08963	4090.1868
322.58347	4104.3213
324.07733	4080.0447
325.57117	4074.04
327.06503	4111.1221
328.55887	4085.2998
330.05273	4139.0957
331.54657	4258.0645
333.04044	4243.9688
334.53427	4169.9761
336.02811	4287.6553
337.52197	4311.835
339.01581	4528.1128
340.50967	4475.5547
342.00351	4458.8379
343.49738	4526.0776
344.99121	4477.6533
346.48505	4571.1274
347.97891	4449.041
349.47275	4468.9331
350.96661	4488.1523
352.46045	4456.6885
353.95432	4434.1079
355.44815	4347.2271
356.94202	4193.6216
358.43585	4156.5024
359.92969	4077.7195
361.42355	3932.6833
362.91739	3801.6633
364.41125	3651.9817
365.90509	3520.4832
367.39896	3406.3247
368.89279	3350.0969
370.38666	3339.1902
371.88049	3339.1563
373.37433	3364.2668
374.86819	3350.3708
376.36203	3309.2974
377.8559	3322.1494
379.34973	3337.8215
380.8436	3305.4871
382.33743	3344
383.83127	3344
385.32513	3306.7805
386.81897	3295.1797
388.31284	3285.4519
389.80667	3261.7971
391.30054	3281.4199
392.79437	3265.4824
394.28824	3212.0032
395.78207	3162.5042
397.27591	3175.8335
398.76978	3207.4338
400.26361	3116.002
401.75748	3103.4077
403.25131	3129.5986
404.74518	3158.9175
406.23901	3082.2988
407.73288	2970.6392
409.22672	2999.2551
410.72055	2993.3652
412.21442	3037.1528
413.70825	3080.4578
415.20212	3053.8796
416.69595	3015.4392
418.18982	3035.8523
419.68365	2996.3132
421.17749	3055.3354
422.67136	3030.4189
424.16519	2973.5491
425.65906	2952.5183
427.15289	2974.1179
428.64676	2952.3035
430.14059	2976.7561
431.63446	2951.5054
433.1283	2917.502
434.62213	2902.0786
436.116	2909.6584
437.60983	2935.5107
439.1037	3038.3596
440.59753	3032.3801
442.0914	3032.7925
443.58524	3039.7607
445.07907	3039.5557
446.57294	3007.1765
448.06677	2901.9766
449.56064	3007.5996
451.05447	3024.6057
452.54834	3024
454.04218	3040.2222
455.53604	3057.8977
457.02988	3035.113
458.52371	3080.7332
460.01758	2986.8435
461.51141	3029.8542
463.00528	3000.9775
464.49911	2918.0635
465.99298	2934.0925
467.48682	2945.9312
468.98068	2993.0908
470.47452	2933.925
471.96835	2932.9067
473.46222	2984.0964
474.95605	3021.3706
476.44992	3012.4131
477.94376	3051.3572
479.43762	3056.5369
480.93146	3071.7754
482.42529	3092.5796
483.91916	3159.7971
485.41299	3272.1943
486.90686	3236.9353
488.4007	3376.0999
489.89456	3324.167
491.3884	3318.9822
492.88226	3327.4282
494.3761	3275.0613
495.86993	3167.4565
497.3638	3074.9814
498.85764	2948.2205
500.3515	2929.8708
501.84534	2887.7065
503.3392	2812.3413
504.83304	2736.6133
506.3269	2618.6365
507.82074	2651.7627
509.31458	2578.1191
510.80844	2555.1418
512.30231	2571.7019
513.79614	2569.1052
515.28998	2510.5767
516.78381	2448.4382
518.27771	2512.2461
519.77155	2478.0627
521.26538	2562.5315
522.75922	2626.6797
524.25305	2586.5061
525.74695	2571.4785
527.24078	2608.9734
528.73462	2592.4773
530.22845	2615.6184
531.72229	2618.7893
533.21619	2615.5962
534.71002	2630.7168
536.20386	2631.2607
537.69769	2558.8284
539.19159	2586.7795
540.68542	2626.437
542.17926	2652.1487
543.6731	2694.5745
545.16693	2751.1963
546.66083	2704.2009
548.15466	2708.4668
549.6485	2684.333
551.14233	2745.2168
552.63623	2791.9119
554.13007	2788.6606
555.6239	2781.6367
557.11774	2795.5127
558.61157	2817.7461
560.10547	2872.0469
561.5993	2889.2471
563.09314	2925.3882
564.58698	2965.0208
566.08087	2946.1511
567.57471	2946.4631
569.06854	2871.1277
570.56238	2877.6785
572.05621	2882.126
573.55011	2852.429
575.04395	2830.3384
576.53778	2844.8982
578.03162	2719.0176
579.52551	2750.73
581.01935	2712.3994
582.51318	2687.571
584.00702	2681.1431
585.50085	2679.1418
586.99475	2653.6995
588.48859	2515.1838
589.98242	2605.2815
591.47626	2587.689
592.97009	2517.3657
594.46399	2457.1936
595.95782	2445.6907
597.45166	2465.9956
598.9455	2420.4053
600.43939	2368.8635
601.93323	2435.9978
603.42706	2407.0149
604.9209	2346.8879
606.41473	2344.9897
607.90863	2389.6836
609.40247	2354.5422
610.8963	2405.2837
612.39014	2339.603
613.88403	2376.2747
615.37787	2419.7327
616.8717	2409.9583
618.36554	2391.3005
619.85938	2431.1858
621.35327	2345.0823
622.84711	2367.584
624.34094	2411.1082
625.83478	2398.4573
627.32867	2411.459
628.82251	2456.8384
630.31635	2323.8396
631.81018	2421.2456
633.30402	2411.9519
634.79791	2406.0059
636.29175	2400.2502
637.78558	2396.3909
639.27942	2393.7034
640.77332	2384.582
642.26715	2388.897
643.76099	2449.666
645.25482	2393.9426
646.74866	2432.0383
648.24255	2493.6873
649.73639	2503.6616
651.23022	2488.4331
652.72406	2474.4385
654.21796	2454.5635
655.71179	2504.6987
657.20563	2504.0784
658.69946	2520.0471
660.1933	2545.8708
661.68719	2530.8616
663.18103	2497.2324
664.67487	2499.8279
666.1687	2436.9819
667.66254	2453.0107
669.15643	2462.5991
670.65027	2458.4058
672.1441	2457.0986
673.63794	2455.0273
675.13184	2473.9888
676.62567	2471.387
678.11951	2426.7439
679.61334	2439.396
681.10718	2495.1982
682.60107	2518.7642
684.09491	2469.8845
685.58875	2427.9033
687.08258	2533.7114
688.57648	2549.0769
690.07031	2563.1548
691.56415	2496.1592
693.05798	2474.1362
694.55182	2521.0417
696.04572	2506.0049
697.53955	2552.8931
699.03339	2597.1826
700.52722	2626.3894
702.02112	2648.9573
703.51495	2651.5957
705.00879	2646.449
706.50262	2657.0972
707.99646	2689.6418
709.49036	2738.3867
710.98419	2806.4219
712.47803	2830.3813
713.97186	2818.717
715.46576	2859.377
716.95959	2928.7966
718.45343	2942.5449
719.94727	2947.2847
721.4411	2923.7795
722.935	3022.7212
724.42883	3065.9519
725.92267	3113.9441
727.4165	3143.479
728.91034	3157.5071
730.40424	3200.6563
731.89807	3205.9243
733.39191	3252.9963
734.88574	3166.7241
736.37964	3172.3154
737.87347	3176.3955
739.36731	3135.1465
740.86115	3074.0229
742.35498	3034.7495
743.84888	3054.0313
745.34271	2901.0952
746.83655	2920.9656
748.33038	2902.3787
749.82428	2877.8362
751.31812	2840.9246
752.81195	2787.8022
754.30579	2765.1062
755.79962	2714.6416
757.29352	2779.3213
758.78735	2684.9412
760.28119	2662.7632
761.77502	2653.2512
763.26892	2618.0793
764.76276	2578.2432
766.25659	2559.8745
767.75043	2584.6421
769.24426	2552.26
770.73816	2551.8057
772.23199	2530.6833
773.72583	2543.1697
775.21967	2536.199
776.71356	2461.5862
778.2074	2394.3176
779.70123	2426.3789
781.19507	2443.0496
782.6889	2474.4443
784.1828	2477.7859
785.67664	2468.1206
787.17047	2466.0713
788.66431	2446.0735
790.15814	2389.2776
791.65204	2427.8093
793.14587	2337.3171
794.63971	2400.7312
796.13354	2457.51
797.62744	2401.1301
799.12128	2331.8921
800.61511	2371.2661
802.10895	2477.3079
803.60278	2449.0708
805.09668	2449.9504
806.59052	2392.7063
808.08435	2350.491
809.57819	2328.5708
811.07208	2369.9006
812.56592	2422.5999
814.05975	2414.0103
815.55359	2395.9836
817.04742	2411.8391
818.54132	2377.988
820.03516	2435.521
821.52899	2457.9038
823.02283	2482.2222
824.51672	2448.3945
826.01056	2379.8594
827.50439	2429.967
828.99823	2478.2231
830.49207	2503.8064
831.98596	2460.0178
833.4798	2451.7568
834.97363	2503.3223
836.46747	2514.6621
837.96136	2512.2656
839.4552	2557.4907
840.94904	2516.6965
842.44287	2548.4968
843.93671	2457.6953
845.4306	2483.9204
846.92444	2470.8816
848.41827	2509.1409
849.91211	2489.1331
851.40601	2396.6807
852.89984	2429.1194
854.39368	2480.9509
855.88751	2465.0261
857.38135	2427.5757
858.87524	2455.6404
860.36908	2456.845
861.86292	2439.7852
863.35675	2405.5635
864.85059	2387.1677
866.34448	2459.7405
867.83832	2449.7019
869.33215	2370.8469
870.82599	2309.5332
872.31989	2312.4241
873.81372	2363.9519
875.30756	2376.874
876.80139	2335.104
878.29523	2321.1011
879.78912	2384.9292
881.28296	2361.512
882.77679	2279.8752
884.27063	2284.0593
885.76453	2290.0068
887.25836	2296.5676
888.7522	2302.3342
890.24603	2298.01
891.73987	2277.6016
893.23376	2248.2188
894.7276	2249.9958
896.22144	2221.6282
897.71527	2204.0256
899.20917	2227.2896
900.703	2271.5103
902.19684	2244.4949
903.69067	2230.3477
905.18451	2310.2378
906.67841	2241.5295
908.17224	2268.9111
909.66608	2247.55
911.15991	2245
912.65381	2271.9697
914.14764	2234.6826
915.64148	2252.1467
917.13531	2328.3748
918.62915	2331.2361
920.12305	2293.7007
921.61688	2357.5334
923.11072	2296.9224
924.60455	2298.2397
926.09839	2254.7026
927.59229	2314.5225
929.08612	2337.772
930.57996	2321.655
932.07379	2364.6885
933.56769	2395.093
935.06152	2387.0583
936.55536	2422.7661
938.04919	2386.4524
939.54303	2333.667
941.03693	2376.3796
942.53076	2403.1809
944.0246	2368.2061
945.51843	2347.4514
947.01233	2379.9756
948.50616	2349.8245
950	2329.2617
951.49384	2391.7544
952.98767	2349.4077
954.48157	2324.8958
955.9754	2372.885
957.46924	2380.9846
958.96307	2354.0671
960.45697	2357.9961
961.95081	2330.2031
963.44464	2400.7756
964.93848	2319.2813
966.43231	2256.9722
967.92621	2223.9597
969.42004	2240.6248
970.91388	2232.2974
972.40771	2201.3813
973.90161	2187.3218
975.39545	2170.7224
976.88928	2104.9282
978.38312	2073.7881
979.87695	2059.4189
981.37085	2047.4879
982.86469	2036.5183
984.35852	2009.3912
985.85236	2005.076
987.34619	1998.7263
988.84009	1987.7172
990.33392	2005.5111
991.82776	1948.2941
993.32159	2033.6425
994.81549	1965.0214
996.30933	1948.2488
997.80316	1946
999.297	1909.7434
1000.7908	1886.9783
1002.2847	1916.2169
1003.7786	1930.6354
1005.2724	1874.1603
1006.7662	1911.6177
1008.2601	1908.0181
1009.754	1920.5522
1011.2478	1918.0109
1012.7416	1920.4922
1014.2355	1944.787
1015.7294	1958.9973
1017.2232	1935.0425
1018.717	1896.1346
1020.2109	1888.2998
1021.7048	1905.8844
1023.1986	1945.0447
1024.6924	1866.6067
1026.1863	1909.546
1027.6802	1959.7817
1029.174	1958.2258
1030.6678	1990.4336
1032.1617	2008.0924
1033.6555	1966.4612
1035.1494	1945.3148
1036.6432	1962.8361
1038.1371	1946.1639
1039.631	2016.6816
1041.1248	1986.1918
1042.6187	1941.5745
1044.1124	1969.7974
1045.6063	2020.8265
1047.1002	2024.8475
1048.594	2033.0977
1050.0879	2071.822
1051.5817	2035.6296
1053.0756	2015.9124
1054.5695	2015.0067
1056.0632	2044.6708
1057.5571	2063.2961
1059.051	2033.5748
1060.5448	2008.8856
1062.0387	1998.337
1063.5325	2004.4441
1065.0264	2005.2406
1066.5203	2002.158
1068.014	2052.4067
1069.5079	1982.2562
1071.0017	2002.2181
1072.4956	2026.5432
1073.9895	2047.1509
1075.4833	2057.499
1076.9772	2017.7302
1078.4709	1962.3163
1079.9648	1964.4076
1081.4587	2028.0463
1082.9525	2042.0161
1084.4464	1932.2434
1085.9402	1983.1675
1087.4341	1966.8043
1088.928	1967.729
1090.4218	2030.6774
1091.9156	2013.47
1093.4095	1989.2919
1094.9033	1996.0791
1096.3972	2000.9651
1097.891	1959.2552
1099.3849	1901.8983
1100.8788	1933.4572
1102.3726	1951.1403
1103.8665	2003.0519
1105.3602	1962.0409
1106.8541	1955.2124
1108.348	1982.9556
1109.8418	1993.7782
1111.3357	1973.131
1112.8295	1969.7739
1114.3234	1968.5674
1115.8173	1938.2632
1117.311	1964.7258
1118.8049	1976.7594
1120.2988	1963.0573
1121.7926	1971.1782
1123.2865	1959.6782
1124.7803	2005.4633
1126.2742	1969.8589
1127.7681	1954.48
1129.2618	1984.475
1130.7557	2005.223
1132.2495	2010.9574
1133.7434	2048.9272
1135.2373	2111.3621
1136.7311	2004.4275
1138.225	2073.9136
1139.7188	2068.2515
1141.2126	2055.9465
1142.7065	2055.1128
1144.2003	2087.6125
1145.6942	2099.5054
1147.188	2100.208
1148.6819	2103.1396
1150.1758	2099.2156
1151.6696	2123.3225
1153.1635	2144.9055
1154.6573	2052.3059
1156.1511	2090.7842
1157.645	2098.1809
1159.1388	2150.5342
1160.6327	2129.4199
1162.1266	2132.4529
1163.6204	2187.1267
1165.1143	2213.7627
1166.608	2178.3381
1168.1019	2150.1282
1169.5958	2154.3267
1171.0896	2095.0989
1172.5835	2192.385
1174.0773	2084.8611
1175.5712	2142.2415
1177.0651	2183.6321
1178.5588	2171.9915
1180.0527	2189.991
1181.5466	2214.4026
1183.0404	2176.1619
1184.5343	2133.6292
1186.0281	2156.043
1187.522	2182.0322
1189.0159	2189.1038
1190.5096	2120.6926
1192.0035	2167.6047
1193.4973	2042.8708
1194.9912	2109.356
1196.4851	2179.3445
1197.9789	2180.7861
1199.4728	2118.6836
1200.9666	2096.0056
1202.4604	2146.8599
1203.9543	2173.2947
1205.4481	2128.1897
1206.942	2114.4922
1208.4359	2129.6648
1209.9297	2138.156
1211.4236	2086.5322
1212.9174	2083.2085
1214.4113	2091.1904
1215.9052	2093
1217.3989	2122.9199
1218.8928	2127.9929
1220.3866	2105.1304
1221.8805	2113.0754
1223.3744	2140.123
1224.8682	2127.0583
1226.3621	2121.719
1227.8558	2172.9844
1229.3497	2137.3274
1230.8436	2093.853
1232.3374	2116.5554
1233.8313	2188.8157
1235.3251	2155.3345
1236.819	2090.8787
1238.3129	2159.7092
1239.8066	2198.22
1241.3005	2173.1162
1242.7944	2198.8943
1244.2882	2224.3357
1245.7821	2179.5754
1247.2759	2239.8232
1248.7698	2232.498
1250.2637	2118.4084
1251.7574	2192.5889
1253.2513	2203.9778
1254.7451	2248.186
1256.239	2190.6213
1257.7329	2214.7402
1259.2267	2280.5806
1260.7206	2272.2629
1262.2144	2263.312
1263.7083	2316.0835
1265.2021	2353.73
1266.6959	2365.8977
1268.1898	2371.7605
1269.6837	2383.29
1271.1775	2342.3616
1272.6714	2371.1738
1274.1652	2414.7917
1275.6591	2338.5574
1277.153	2334.7971
1278.6467	2328.4526
1280.1406	2406.4512
1281.6344	2456.144
1283.1283	2421.8154
1284.6222	2437.7671
1286.116	2500.2886
1287.6099	2464.0964
1289.1036	2471.4397
1290.5975	2553.9536
1292.0914	2478.2654
1293.5852	2484.7866
1295.0791	2530.97
1296.5729	2425.9995
1298.0668	2462.9385
1299.5607	2481
1301.0544	2493.603
1302.5483	2520.1335
1304.0422	2530.0449
1305.536	2510.4172
1307.0299	2485.9233
1308.5237	2464.8701
1310.0176	2459.1528
1311.5115	2522.5103
1313.0052	2453.887
1314.4991	2509.6675
1315.9929	2530.2166
1317.4868	2498.6145
1318.9807	2423.2681
1320.4745	2455.1165
1321.9684	2492.9109
1323.4622	2501.7239
1324.9561	2456.8223
1326.45	2443.866
1327.9437	2457.6636
1329.4376	2429.7104
1330.9315	2404.4844
1332.4253	2444.9658
1333.9192	2484.3792
1335.413	2408.3574
1336.9069	2468.3438
1338.4008	2488.9695
1339.8945	2501.1572
1341.3884	2458.4036
1342.8822	2463.3372
1344.3761	2474.9653
1345.87	2463.6289
1347.3638	2438.3262
1348.8577	2456.1418
1350.3514	2469.0376
1351.8453	2432.3716
1353.3392	2431.7698
1354.833	2477.0313
1356.3269	2452.748
1357.8207	2469.0337
1359.3146	2526.9382
1360.8085	2432.7898
1362.3022	2431.032
1363.7961	2538.0916
1365.29	2543.1113
1366.7838	2495.7949
1368.2777	2539.8101
1369.7715	2549.6213
1371.2654	2534.6599
1372.7593	2558.6802
1374.2531	2601.7664
1375.7469	2569.5632
1377.2407	2512
1378.7346	2526.8845
1380.2285	2588.5938
1381.7223	2650.3279
1383.2162	2590.4468
1384.71	2614.1721
1386.2039	2574.584
1387.6978	2613.0469
1389.1915	2620.5825
1390.6854	2599.6194
1392.1793	2661.1565
1393.6731	2656.9165
1395.167	2633.2766
1396.6608	2615.3896
1398.1547	2582.6965
1399.6486	2618.9248
1401.1423	2616.0681
1402.6362	2608.3367
1404.13	2645.8442
1405.6239	2676.9004
1407.1178	2754.8611
1408.6116	2674.4412
1410.1055	2701.3018
1411.5992	2685.0796
1413.0931	2708.2581
1414.587	2658.1924
1416.0808	2690.9792
1417.5747	2610.3823
1419.0685	2597.499
1420.5624	2724.8994
1422.0563	2696.3501
1423.55	2684.7891
1425.0439	2656.9385
1426.5378	2633.7363
1428.0316	2629.4343
1429.5255	2642.657
1431.0193	2645.1057
1432.5132	2628.0276
1434.0071	2638.3953
1435.5009	2611.7014
1436.9948	2536.7947
1438.4885	2537.7976
1439.9824	2522.7363
1441.4763	2502.1611
1442.9701	2527.7815
1444.464	2536.4678
1445.9578	2521.8691
1447.4517	2479.71
1448.9456	2505.0952
1450.4393	2456.4822
1451.9332	2477.9204
1453.4271	2490.6277
1454.9209	2538.0991
1456.4148	2513.2439
1457.9086	2461.0002
1459.4025	2472.8467
1460.8964	2441.2515
1462.3901	2373.7891
1463.884	2403.9602
1465.3778	2456.3179
1466.8717	2485.9167
1468.3656	2502.748
1469.8594	2370.3972
1471.3533	2453.4126
1472.847	2385.0378
1474.3409	2404.084
1475.8348	2416.7861
1477.3286	2432.6077
1478.8225	2383.8401
1480.3163	2430.1399
1481.8102	2433.6375
1483.3041	2430.6855
1484.7979	2436.3733
1486.2917	2431.481
1487.7856	2440.3689
1489.2794	2449.1111
1490.7733	2411.9863
1492.2671	2394.8489
1493.761	2468.5835
1495.2549	2517.6841
1496.7487	2490.7075
1498.2426	2516.7151
1499.7363	2487.6362
1501.2302	2534.6089
1502.7241	2563.9602
1504.2179	2529.7114
1505.7118	2548.8259
1507.2056	2647.6274
1508.6995	2613.2058
1510.1934	2646.8708
1511.6871	2703.6589
1513.181	2602.0469
1514.6749	2618.7244
1516.1687	2604.644
1517.6626	2655.1948
1519.1564	2691.6028
1520.6503	2692.5608
1522.1442	2664.9829
1523.6379	2682.3682
1525.1318	2740.0042
1526.6256	2738.4336
1528.1195	2687.8455
1529.6134	2665.1699
1531.1072	2738.8826
1532.6011	2777.1804
1534.0948	2826.6885
1535.5887	2830.9167
1537.0826	2813
1538.5764	2816.3914
1540.0703	2859.6848
1541.5641	2707.0962
1543.058	2848.8943
1544.5519	2870.6169
1546.0457	2855.5059
1547.5396	2841.4006
1549.0334	2847.6897
1550.5272	2854.5054
1552.0211	2882.3687
1553.5149	2906.4805
1555.0088	2914.908
1556.5027	2944.6934
1557.9965	2924.8003
1559.4904	2880.9448
1560.9841	2840.8918
1562.478	2823.0769
1563.9719	2871.2095
1565.4657	2905.9436
1566.9596	2871.5691
1568.4534	2867.6631
1569.9473	2916.7881
1571.4412	2907.6738
1572.9349	2855.1338
1574.4288	2807.7239
1575.9227	2866.6917
1577.4165	2834.4448
1578.9104	2917.6062
1580.4042	2929.4934
1581.8981	2887.9819
1583.392	2887
1584.8857	2828.0347
1586.3796	2829.8574
1587.8734	2738.8174
1589.3673	2816.6765
1590.8612	2876.9353
1592.355	2893.1499
1593.8489	2855.666
1595.3427	2869.7488
1596.8365	2834.1912
1598.3304	2806.8069
1599.8242	2811.4177
1601.3181	2805.9517
1602.812	2796.9851
1604.3058	2769.5359
1605.7997	2713.7773
1607.2935	2699.7363
1608.7874	2730.375
1610.2813	2713.1384
1611.775	2709.2451
1613.2689	2731.2161
1614.7627	2626.9519
1616.2566	2644.0803
1617.7505	2607.4329
1619.2443	2671.2234
1620.7382	2547.9194
1622.2319	2608.6948
1623.7258	2527.4475
1625.2197	2491.6074
1626.7135	2507.8298
1628.2074	2480.6536
1629.7012	2504.6301
1631.1951	2450.0525
1632.689	2429.9021
1634.1827	2465.8118
1635.6766	2388.9236
1637.1705	2387.2441
1638.6643	2340.6843
1640.1582	2350.6167
1641.652	2383.4128
1643.1459	2294.2927
1644.6398	2266.5674
1646.1335	2274.3647
1647.6274	2261.8396
1649.1212	2288.8569
1650.6151	2275.3113
1652.109	2265.3459
1653.6028	2247.4102
1655.0967	2200.4348
1656.5905	2222.7698
1658.0844	2254.9607
1659.5782	2198.5981
1661.072	2169.5452
1662.5659	2175.9023
1664.0598	2142.5007
1665.5536	2127.7966
1667.0475	2093.3188
1668.5413	2131.4365
1670.0352	2131.7905
1671.5291	2121.4111
1673.0228	2068.5566
1674.5167	2087.2278
1676.0105	2049.8242
1677.5044	2099.6267
1678.9983	2007.2247
1680.4921	1950.7961
1681.986	2051.7622
1683.4797	2073.698
1684.9736	2014.7522
1686.4675	1968.1992
1687.9613	1992.9021
1689.4552	1987.7148
1690.949	1977.4357
1692.4429	2023.8151
1693.9368	1989.2762
1695.4305	1996.9347
1696.9244	2020.9969
1698.4183	1972.2416
1699.9121	1991.0157
1701.406	1943.4609
1702.8998	1939.7026
1704.3937	1923.7483
1705.8876	1960.535
1707.3813	1926.4214
1708.8752	1913.8054
1710.369	1928.0013
1711.8629	1957.4937
1713.3568	1965.1614
1714.8506	1952.9869
1716.3445	1931.5101
1717.8383	1937.5211
1719.3322	1948.6663
1720.826	1954.4095
1722.3198	1968.4669
1723.8137	1948.0513
1725.3076	1922.854
1726.8014	1910.9862
1728.2953	1889.3387
1729.7891	1872.0983
1731.283	1892.817
1732.7769	1867.9093
1734.2706	1897.3904
1735.7645	1927.5555
1737.2583	1900.5248
1738.7522	1914.1263
1740.2461	1938.516
1741.7399	1961.5679
1743.2338	1986.4849
1744.7275	1916.2603
1746.2214	1895.5605
1747.7153	1905.0222
1749.2091	1929.4957
1750.703	1958.9037
1752.1968	1957.5316
1753.6907	1940.1952
1755.1846	1940.1641
1756.6783	1977.8341
1758.1722	1978.037
1759.6661	1947.4719
1761.1599	1950.2754
1762.6538	1975.5822
1764.1476	1928.0945
1765.6415	1966.0204
1767.1354	1977.4645
1768.6292	1974.4569
1770.123	1991.2343
1771.6168	1908.2938
1773.1107	1983.8081
1774.6046	2012.1428
1776.0984	1967.0635
1777.5923	1983.3108
1779.0861	2005.0165
1780.58	1974.2343
1782.0739	1971.3424
1783.5676	1992.6062
1785.0615	1968.1643
1786.5554	1987.2057
1788.0492	1962.6879
1789.5431	2018.4075
1791.0369	1939.7527
1792.5308	1966.837
1794.0247	1978.1603
1795.5184	1969.4296
1797.0123	1966.701
1798.5061	1912.1846
1800	1926.7848
1801.4939	1922.8818
1802.9877	2008.7113
1804.4816	1952.2775
1805.9753	1967.8811
1807.4692	1954.3671
1808.9631	1861.9554
1810.4569	1926.7515
1811.9508	1924.7333
1813.4446	1915.4655
1814.9385	1877.7686
1816.4324	1882.1941
1817.9261	1923.6055
1819.42	1966.9451
1820.9139	1904.0214
1822.4077	1898.7191
1823.9016	1852.8654
1825.3954	1857.2817
1826.8893	1878.2765
1828.3832	1822.4506
1829.877	1848.3828
1831.3708	1867.9474
1832.8646	1830.5848
1834.3585	1849.0876
1835.8524	1869.9218
1837.3462	1900.2781
1838.8401	1888.7936
1840.3339	1872.7125
1841.8278	1834.2009
1843.3217	1837.2175
1844.8154	1870.8644
1846.3093	1828.4502
1847.8032	1854.7964
1849.297	1884.354
1850.7909	1869.1158
1852.2847	1873.5254
1853.7786	1846.8361
1855.2725	1858.0509
1856.7662	1893.396
1858.2601	1894.5817
1859.7539	1843.0182
1861.2478	1834.4773
1862.7417	1880.9722
1864.2355	1857.734
1865.7294	1862.2758
1867.2231	1894.2589
1868.717	1872.4022
1870.2109	1887.6611
1871.7047	1956.4594
1873.1986	1903.5414
1874.6924	1908.5309
1876.1863	1944.6456
1877.6802	1885.6938
1879.174	1894.4744
1880.6678	1908.4757
1882.1617	1967.4967
1883.6555	1966.1064
1885.1494	1926.8254
1886.6432	1954
1888.1371	1966.9117
1889.631	1964.4224
1891.1248	1952.2312
1892.6187	1992.8552
1894.1124	1996.6974
1895.6063	1989.1749
1897.1002	1979.9513
1898.594	1945.3469
1900.0879	1923.9182
1901.5817	1971.7854
1903.0756	2003.3159
1904.5695	2032.5381
1906.0632	1976.1588
1907.5571	1927.9451
1909.051	1941.0934
1910.5448	1929.2166
1912.0387	1934.749
1913.5325	1957.0366
1915.0264	1959.7167
1916.5203	1967.8258
1918.014	1944.8391
1919.5079	1883.1569
1921.0017	1912.6995
1922.4956	1950.2106
1923.9895	1969.359
1925.4833	1973.3982
1926.9772	1941.1982
1928.4709	1929.7157
1929.9648	1916.9504
1931.4587	1849.6307
1932.9525	1830.7537
1934.4464	1881.0961
1935.9402	1918.5056
1937.4341	1882.543
1938.928	1862.264
1940.4218	1871.2386
1941.9156	1918.8357
1943.4095	1908.0067
1944.9033	1908.0067
1946.3972	1908.0067
1947.891	1954.3716
1949.3849	1914.3376
1950.8788	1851.4368
1952.3726	1861.7939
1953.8665	1856.9808
1955.3602	1848.4774
1956.8541	1826.7716
1958.348	1809.3677
1959.8418	1808.5507
1961.3357	1809.5613
1962.8295	1814.9354
1964.3234	1845.635
1965.8173	1814.0739
1967.311	1768.1735
1968.8049	1785.5587
1970.2988	1800.7671
1971.7926	1827.4661
1973.2865	1802.9158
1974.7803	1848.7117
1976.2742	1836.0105
1977.7681	1836.0105
1979.2618	1836.0105
1980.7557	1853.2567
1982.2495	1821.4182
1983.7434	1791.8464
1985.2373	1739.8615
1986.7311	1780.2893
1988.225	1847.889
1989.7188	1805.9202
1991.2126	1783.1031
1992.7065	1788.0665
1994.2003	1821.1893
1995.6942	1805.1448
1997.188	1858.7123
1998.6819	1849.5245
2000.1758	1823.5875
2001.6696	1749.3615
2003.1635	1795.4336
2004.6573	1792.5662
2006.1511	1813.7711
2007.645	1808.1039
2009.1388	1786.989
2010.6327	1851.189
2012.1266	1831.214
2013.6204	1857.6001
2015.1143	1831.6327
2016.608	1857.1217
2018.1019	1858.3003
2019.5958	1917.3992
2021.0896	1862.6794
2022.5835	1860.8269
2024.0773	1905.9698
2025.5712	1873.026
2027.0651	1834.5181
2028.5588	1894.9333
2030.0527	1870.1377
2031.5466	1933.6648
2033.0404	1953.1464
2034.5343	1953.9973
2036.0281	1918.5463
2037.522	1849.9886
2039.0159	1903.1908
2040.5096	1951.9452
2042.0035	1909.7218
2043.4973	1928.2346
2044.9912	1890.5668
2046.4851	1928.3857
2047.9789	1971.9944
2049.4727	1997.863
2050.9666	1968.5499
2052.4604	1951.3081
2053.9543	1931.2284
2055.4482	2014.5461
2056.9419	1929.2288
2058.4358	1976.1458
2059.9297	1928.9069
2061.4236	1908.8577
2062.9175	1974.3033
2064.4111	1948.5432
2065.905	1964.1389
2067.3989	1973.582
2068.8928	1929.6288
2070.3867	1920.4478
2071.8804	1921.7938
2073.3743	1934.1205
2074.8682	1926.9124
2076.3621	1869.1747
2077.856	1880.6389
2079.3499	1896.3322
2080.8435	1843.7869
2082.3374	1838.9734
2083.8313	1910.9821
2085.3252	1896.092
2086.8191	1851.6886
2088.3127	1861.9529
2089.8066	1853.7665
2091.3005	1891.4985
2092.7944	1818.0798
2094.2883	1863.12
2095.782	1797.7637
2097.2759	1863.4091
2098.7698	1748.7477
2100.2637	1865.3776
2101.7576	1742.3337
2103.2512	1775.1918
2104.7451	1799.6157
2106.239	1790.9399
2107.7329	1838.8351
2109.2268	1835.8082
2110.7205	1819.5847
2112.2144	1772.8788
2113.7083	1757.9314
2115.2021	1803.6294
2116.696	1786.4539
2118.1897	1802.4886
2119.6836	1791.4635
2121.1775	1784.4436
2122.6714	1777.6052
2124.1653	1822.3654
2125.6589	1801.3234
2127.1528	1768.543
2128.6467	1783.0759
2130.1406	1741.054
2131.6345	1783.7815
2133.1282	1786.8539
2134.6221	1775.7455
2136.116	1745.1106
2137.6099	1784.642
2139.1038	1794.9934
2140.5977	1760.3901
2142.0913	1756.3162
2143.5852	1768.4971
2145.0791	1762.6473
2146.573	1841.788
2148.0669	1748.3578
2149.5605	1746.1757
2151.0544	1864.58
2152.5483	1824.7379
2154.0422	1763.1168
2155.5361	1748.0439
2157.0298	1843.4307
2158.5237	1793.6431
2160.0176	1847.243
2161.5115	1824.1085
2163.0054	1845.7706
2164.499	1807.9506
2165.9929	1826.5043
2167.4868	1879.052
2168.9807	1877.7594
2170.4746	1864.1908
2171.9683	1884.4001
2173.4622	1907.3416
2174.9561	1909.3025
2176.45	1909.2942
2177.9438	1914.467
2179.4375	1893.7579
2180.9314	1892.712
2182.4253	1921.1638
2183.9192	1906.5576
2185.4131	1881.6265
2186.9067	1893.6183
2188.4006	1892.8533
2189.8945	1913.2999
2191.3884	1922.4391
2192.8823	1911.1072
2194.376	1937.3553
2195.8699	1955.7662
2197.3638	2018.4309
2198.8577	1909.335
2200.3516	1995.767
2201.8455	1942.4373
2203.3391	2048.4165
2204.833	1932.1864
2206.3269	1977.0701
2207.8208	1925.189
2209.3147	1962.5137
2210.8083	2002.7299
2212.3022	2021.0881
2213.7961	1931.5479
2215.29	1940.7255
2216.7839	1984.623
2218.2776	1956.5729
2219.7715	1975.7662
2221.2654	1944.9271
2222.7593	1913.2129
2224.2532	1956.6873
2225.7468	1958.9868
2227.2407	1959.6729
2228.7346	1925.9718
2230.2285	1907.7539
2231.7224	1973.5471
2233.2161	1943.1676
2234.71	1869.7153
2236.2039	1870.9602
2237.6978	1969.0532
2239.1917	1916.37
2240.6853	1940.2378
2242.1792	1905.6505
2243.6731	1911.4657
2245.167	1901.8451
2246.6609	1861.5654
2248.1545	1901.3107
2249.6484	1897.9009
2251.1423	1876.7946
2252.6362	1829.4758
2254.1301	1837.6377
2255.624	1839.2301
2257.1177	1802.1101
2258.6116	1784.4633
2260.1055	1862.4288
2261.5994	1892.8308
2263.0933	1911.4006
2264.5869	1863.8577
2266.0808	1825.8118
2267.5747	1787.8485
2269.0686	1825.6992
2270.5625	1794.7399
2272.0562	1777.5571
2273.55	1768.2581
2275.0439	1843.2341
2276.5378	1731.8124
2278.0317	1777.579
2279.5254	1747.3527
2281.0193	1800.7975
2282.5132	1839.9618
2284.0071	1826.7057
2285.501	1786.1395
2286.9946	1796.9165
2288.4885	1782.0387
2289.9824	1743.8763
2291.4763	1792.6823
2292.9702	1824.6704
2294.4639	1804.8608
2295.9578	1788.907
2297.4517	1779.873
2298.9456	1815.7296
2300.4395	1772.3213
2301.9331	1748.7675
2303.427	1803.0836
2304.9209	1741.6548
2306.4148	1763.4711
2307.9087	1747.483
2309.4023	1766.3984
2310.8962	1733.1949
2312.3901	1697.3113
2313.884	1759.7629
2315.3779	1773.5404
2316.8718	1777.235
2318.3655	1821.2836
2319.8594	1782.0381
2321.3533	1773.8269
2322.8472	1847.0676
2324.3411	1810.3043
2325.8347	1830.0013
2327.3286	1796.4286
2328.8225	1850.6619
2330.3164	1820.5088
2331.8103	1816.323
2333.304	1853.6997
2334.7979	1807.2148
2336.2917	1802.6713
2337.7856	1811.8046
2339.2795	1837.6108
2340.7732	1860.1278
2342.2671	1807.0237
2343.761	1838.0454
2345.2549	1838.2631
2346.7488	1881.4991
2348.2424	1880.9459
2349.7363	1880.682
2351.2302	1868.1108
2352.7241	1857.8462
2354.218	1863.6665
2355.7117	1876.3363
2357.2056	1903.2362
2358.6995	1841.5553
2360.1934	1871.3187
2361.6873	1905.105
2363.1809	1852.2329
2364.6748	1869.5424
2366.1687	1854.2788
2367.6626	1875.2222
2369.1565	1884.9974
2370.6501	1904.9176
2372.144	1875.1921
2373.6379	1879.0814
2375.1318	1922.6538
2376.6257	1875.9515
2378.1196	1869.6324
2379.6133	1900.0511
2381.1072	1915.5035
2382.6011	1900.5571
2384.095	1911.1062
2385.5889	1920.1272
2387.0825	1880.2014
2388.5764	1931.8093
2390.0703	1901.5167
2391.5642	1933.8273
2393.0581	1945.5634
2394.5518	1934.2395
2396.0457	1948.1234
2397.5396	1959.889
2399.0334	1982.224
2400.5273	1958.2421
2402.021	1956.6578
2403.5149	1922.6984
2405.0088	1953.3091
2406.5027	1897.3158
2407.9966	1916.0353
2409.4902	1952.3177
2410.9841	1935.3479
2412.478	1949.9447
2413.9719	2001.9175
2415.4658	2017.8459
2416.9595	1974.4326
2418.4534	1956.7388
2419.9473	1935.9099
2421.4412	1920.089
2422.9351	1994.8761
2424.4287	1943.7196
2425.9226	1977.9597
2427.4165	1946.2705
2428.9104	1988.5845
2430.4043	1921.7185
2431.8979	1913.105
2433.3918	1910.5566
2434.8857	1974.8944
2436.3796	1934.2603
2437.8735	1905.1942
2439.3674	1918.5029
2440.8611	1927.6565
2442.355	1961.2946
2443.8489	1914.3309
2445.3428	1960.3558
2446.8367	2012.4642
2448.3303	1957.3253
2449.8242	1920.3047
2451.3181	1955.953
2452.812	1942.8567
2454.3059	1901.8763
2455.7996	1961.4376
2457.2935	1943.0313
2458.7874	1928.2308
2460.2813	1941.9366
2461.7751	1981.6793
2463.2688	1963.3766
2464.7627	1967.2393
2466.2566	1921.7032
2467.7505	1971.4257
2469.2444	1855.2893
2470.738	1961.3354
2472.2319	1957.3044
2473.7258	1986.8163
2475.2197	1911.0769
2476.7136	1885.6866
2478.2073	1933.588
2479.7012	1936.3451
2481.1951	1932.0425
2482.689	1995.6411
2484.1829	1960.8121
2485.6765	1972.225
2487.1704	1975.1381
2488.6643	1956.6119
2490.1582	1910.2339
2491.6521	1949.2422
2493.1458	1934.4933
2494.6396	1999.6844
2496.1335	1956.5958
2497.6274	1912.1823
2499.1213	1957.4116
2500.6152	1930.5076
2502.1089	1964.6134
2503.6028	1931.2177
2505.0967	1969.358
2506.5906	2014.7401
2508.0845	1884.1013
2509.5781	1894.9941
2511.072	1941.8096
2512.5659	1915.7552
2514.0598	1958.7762
2515.5537	2005
2517.0474	1997.5016
2518.5413	2002.1947
2520.0352	1999.7498
2521.5291	1962.0537
2523.0229	1955.9463
2524.5166	1918.0864
2526.0105	1918.9329
2527.5044	1962.7939
2528.9983	1975.2345
2530.4922	2058.2012
2531.9858	2007.299
2533.4797	1932.9471
2534.9736	2008.0634
2536.4675	2038.1401
2537.9614	1986.5811
2539.4551	2050.248
2540.949	2112.6304
2542.4429	2002.1316
2543.9368	2050.0059
2545.4307	1938.5752
2546.9243	2063.3389
2548.4182	2011.3202
2549.9121	1954.3597
2551.406	1985.0144
2552.8999	2043.9172
2554.3936	2073.5256
2555.8875	2092.9133
2557.3813	2002.8915
2558.8752	1956.2684
2560.3691	2007.6201
2561.863	1967.8368
2563.3567	2046.0861
2564.8506	2069.5674
2566.3445	2025.9404
2567.8384	1981.886
2569.3323	1981.5586
2570.8259	2038.715
2572.3198	2102.5615
2573.8137	2095.8723
2575.3076	2090.4343
2576.8015	2034.8113
2578.2952	2007.2253
2579.7891	2077.5371
2581.283	2048.1211
2582.7769	1986.4003
2584.2708	2079.7991
2585.7644	2091.5264
2587.2583	2021.8009
2588.7522	2056.1233
2590.2461	2070.5508
2591.74	2059.7046
2593.2336	2088.9595
2594.7275	2100.1479
2596.2214	2125.1533
2597.7153	2079.9285
2599.2092	2100.8828
2600.7029	2092.1147
2602.1968	2059.0129
2603.6907	2100.9373
2605.1846	2120.7126
2606.6785	2117.3062
2608.1721	2106.8054
2609.666	2027.9292
2611.1599	2143.6082
2612.6538	2059.4927
2614.1477	2101.6536
2615.6414	2121.9509
2617.1353	2114.4863
2618.6292	2072.1194
2620.123	2125.0635
2621.6169	2168.9089
2623.1108	2141.1658
2624.6045	2158.2744
2626.0984	2138.7324
2627.5923	2070.8601
2629.0862	2112.0928
2630.5801	2124.499
2632.0737	2124.0056
2633.5676	2129.155
2635.0615	2132.8933
2636.5554	2142.625
2638.0493	2146.5757
2639.543	2094.9333
2641.0369	2115.0923
2642.5308	2081.3635
2644.0247	2120.1716
2645.5186	2146.9041
2647.0122	2103.5381
2648.5061	2145.188
2650	2187.8967
2651.4939	2200.5264
2652.9878	2143.251
2654.4814	2136.7454
2655.9753	2103.0154
2657.4692	2166.5593
2658.9631	2144.7871
2660.457	2142.8616
2661.9507	2181.821
2663.4446	2168.6765
2664.9385	2162.655
2666.4324	2138.2039
2667.9263	2161.8965
2669.4199	2142.5845
2670.9138	2111.9734
2672.4077	2141.5474
2673.9016	2110.3384
2675.3955	2161.1885
2676.8892	2157.4658
2678.3831	2159.6028
2679.877	2133.3936
2681.3708	2165.1787
2682.8647	2141.7761
2684.3586	2133.5532
2685.8523	2157.1604
2687.3462	2152.9395
2688.8401	2161.4958
2690.334	2084.8325
2691.8279	2141.9382
2693.3215	2127.3159
2694.8154	2121.7844
2696.3093	2141.8635
2697.8032	2191.6414
2699.2971	2230.427
2700.7908	2200.897
2702.2847	2191.5181
2703.7786	2210.9026
2705.2725	2184.3621
2706.7664	2182.157
2708.26	2236.6829
2709.7539	2245.5042
2711.2478	2267.0039
2712.7417	2245.1306
2714.2356	2158.5864
2715.7292	2197.7603
2717.2231	2169.3689
2718.717	2145.4399
2720.2109	2169.0281
2721.7048	2204.5251
2723.1985	2170.459
2724.6924	2158.1482
2726.1863	2162.2346
2727.6802	2209.2925
2729.1741	2186.4558
2730.6677	2156.0801
2732.1616	2193.8665
2733.6555	2195.8684
2735.1494	2226.8728
2736.6433	2189.3533
2738.137	2161.6206
2739.6309	2172.3335
2741.1248	2180.3267
2742.6187	2199.0278
2744.1125	2162.1399
2745.6064	2142.8259
2747.1001	2179.6743
2748.594	2176.0862
2750.0879	2173.0825
2751.5818	2227.2209
2753.0757	2166.4204
2754.5693	2214.0957
2756.0632	2206.8879
2757.5571	2182.0479
2759.051	2173.7979
2760.5449	2234.6184
2762.0386	2195.7146
2763.5325	2199.3047
2765.0264	2208.6531
2766.5203	2197.7712
2768.0142	2150.1199
2769.5078	2216.8965
2771.0017	2223.7693
2772.4956	2209.4409
2773.9895	2176.5466
2775.4834	2168.2336
2776.9771	2206.7336
2778.4709	2170.3086
2779.9648	2161.032
2781.4587	2155.4988
2782.9526	2179.7703
2784.4463	2180.7937
2785.9402	2174.3911
2787.4341	2168.0347
2788.928	2181.7112
2790.4219	2180.551
2791.9155	2182.9548
2793.4094	2159.6157
2794.9033	2150.6824
2796.3972	2170.5396
2797.8911	2255.8616
2799.3848	2179.2439
2800.8787	2179.2439
2802.3726	2264.1025
2803.8665	2199.3103
2805.3604	2186.9412
2806.8542	2124.7886
2808.3479	2167.8457
2809.8418	2177.2637
2811.3357	2190.7202
2812.8296	2163.6392
2814.3235	2182.5608
2815.8171	2211.6694
2817.311	2206.6367
2818.8049	2155.2825
2820.2988	2197.3352
2821.7927	2161.696
2823.2864	2138.7273
2824.7803	2169.5837
2826.2742	2195.1069
2827.7681	2184.3643
2829.262	2159.2668
2830.7556	2142.9211
2832.2495	2174.8015
2833.7434	2182.8833
2835.2373	2169.4856
2836.7312	2178.9219
2838.2249	2160.811
2839.7188	2134.4666
2841.2126	2168.3899
2842.7065	2210.6758
2844.2004	2190.9255
2845.6941	2144.6821
2847.188	2162.1501
2848.6819	2151.2043
2850.1758	2170.1077
2851.6697	2187.5286
2853.1633	2159.0549
2854.6572	2142.0723
2856.1511	2186.9585
2857.645	2171.9414
2859.1389	2129.5459
2860.6326	2168.2241
2862.1265	2200.9321
2863.6204	2150.4829
2865.1143	2143.0874
2866.6082	2143.7866
2868.1021	2143.6299
2869.5957	2146.7959
2871.0896	2143.5896
2872.5835	2183.3582
2874.0774	2185.8215
2875.5713	2149.375
2877.0649	2142.4063
2878.5588	2129.4636
2880.0527	2117.5767
2881.5466	2121.5295
2883.0405	2160.7332
2884.5342	2148.4819
2886.0281	2159.5625
2887.522	2129.5925
2889.0159	2141.6299
2890.5098	2159.1084
2892.0034	2151.8733
2893.4973	2136.6484
2894.9912	2095.9143
2896.4851	2102.0757
2897.979	2179.5654
2899.4727	2180.0544
2900.9666	2108.0591
2902.4604	2171.2654
2903.9543	2149.625
2905.4482	2121.9766
2906.9419	2143.7517
2908.4358	2141.0662
2909.9297	2180.3174
2911.4236	2179.9888
2912.9175	2131.4463
2914.4111	2152.3545
2915.905	2121.9016
2917.3989	2144.1484
2918.8928	2140.3884
2920.3867	2114.2625
2921.8804	2122.8582
2923.3743	2166.5498
2924.8682	2157.2822
2926.3621	2161.0588
2927.856	2146.9043
2929.3499	2156.0364
2930.8435	2144.9019
2932.3374	2153.3279
2933.8313	2107.1963
2935.3252	2097.9841
2936.8191	2157.0005
2938.3127	2157.1863
2939.8066	2147.2988
2941.3005	2132.6895
2942.7944	2089.8008
2944.2883	2146.1548
2945.782	2183.0186
2947.2759	2140.3767
2948.7698	2116.4868
2950.2637	2104.3486
2951.7576	2142.0422
2953.2512	2095.5662
2954.7451	2103.6523
2956.239	2134.7983
2957.7329	2140.5063
2959.2268	2176.124
2960.7205	2129.5649
2962.2144	2160.2263
2963.7083	2171.6421
2965.2021	2121.2493
2966.696	2166.0754
2968.1897	2134.2908
2969.6836	2120.0564
2971.1775	2184.8933
2972.6714	2204.1909
2974.1653	2138.2441
2975.6589	2168.2886
2977.1528	2154.0745
2978.6467	2150.8933
2980.1406	2171.1748
2981.6345	2191.5066
2983.1282	2171.2866
2984.6221	2209.4719
2986.116	2198.8474
2987.6099	2085.1411
2989.1038	2158.51
2990.5977	2146.7471
2992.0913	2168.3367
2993.5852	2140.0798
2995.0791	2153.3188
2996.573	2088.0862
2998.0669	2139.9402
2999.5605	2134.3335
3001.0544	2129.9824
3002.5483	2131.929
3004.0422	2133.5886
3005.5361	2161.0945
3007.0298	2176.0842
3008.5237	2167.5737
3010.0176	2153.3867
3011.5115	2131.6003
3013.0054	2106.9736
3014.499	2190.6128
3015.9929	2165.9351
3017.4868	2177.7642
3018.9807	2144.9922
3020.4746	2088.2378
3021.9683	2095.3853
3023.4622	2147.2041
3024.9561	2139.363
3026.45	2137.3953
3027.9438	2091.7935
3029.4375	2181.0122
3030.9314	2180.502
3032.4253	2230.4063
3033.9192	2147.2585
3035.4131	2050.498
3036.9067	2096.5681
3038.4006	2162.3828
3039.8945	2136.0452
3041.3884	2140.1958
3042.8823	2172.2378
3044.376	2114.9468
3045.8699	2085.7913
3047.3638	2113.9275
3048.8577	2076.1484
3050.3516	2115.5691
3051.8455	2196.4214
3053.3391	2152.2839
3054.833	2155.4829
3056.3269	2134.1357
3057.8208	2123.0378
3059.3147	2109.5369
3060.8083	2140.5203
3062.3022	2090.311
3063.7961	2146.7412
3065.29	2196.4839
3066.7839	2100.2344
3068.2776	2092.0566
3069.7715	2142.4587
3071.2654	2100.2129
3072.7593	2124.0757
3074.2532	2116.54
3075.7468	2076.2324
3077.2407	2121.2981
3078.7346	2088.2888
3080.2285	2085.019
3081.7224	2108.9041
3083.2161	2050.791
3084.71	2089.1423
3086.2039	2137.7373
3087.6978	2071.7444
3089.1917	2092.5396
3090.6853	2136.6799
3092.1792	2163.1099
3093.6731	2142.0222
3095.167	2127.6104
3096.6609	2137.6458
3098.1545	2120.7634
3099.6484	2121.7031
3101.1423	2079.5386
3102.6362	2098.7087
3104.1301	2123.2617
3105.624	2095.6179
3107.1177	2073.7966
3108.6116	2036.9011
3110.1055	2063.2539
3111.5994	2142.7957
3113.0933	2109
3114.5869	2109.3926
3116.0808	2104.9712
3117.5747	2130.0044
3119.0686	2069.6687
3120.5625	2140.0659
3122.0562	2118.4646
3123.55	2096.3926
3125.0439	2089.1614
3126.5378	2097.552
3128.0317	2052.8538
3129.5254	2140.8728
3131.0193	2132.9714
3132.5132	2097.7874
3134.0071	2105.731
3135.501	2068.4731
3136.9946	2058.7954
3138.4885	2176.0044
3139.9824	2132.2981
3141.4763	2063.6753
3142.9702	2112.3921
3144.4639	2108.0383
3145.9578	2104.1387
3147.4517	2131.1587
3148.9456	2075.2996
3150.4395	2096.6829
3151.9331	2117.6816
3153.427	2030.3442
3154.9209	2081.759
3156.4148	2120.425
3157.9087	2123.0566
3159.4023	2166.7756
3160.8962	2135.8076
3162.3901	2077.251
3163.884	2048.1536
3165.3779	2142.1497
3166.8718	2108.3142
3168.3655	2103.8904
3169.8594	2061.7834
3171.3533	2123.7471
3172.8472	2033.8655
3174.3411	2107.9121
3175.8347	2097.3389
3177.3286	2057.313
3178.8225	2073.4604
3180.3164	2125.5667
3181.8103	2105.7275
3183.304	2132.7322
3184.7979	2090.5339
3186.2917	2069.7466
3187.7856	2058.3042
3189.2795	2095.3804
3190.7732	2104.0217
3192.2671	2082.6628
3193.761	2091.7937
3195.2549	2066.2856
3196.7488	2048.3813
3198.2424	2099.0793
3199.7363	2076.457
3201.2302	2086.7234
3202.7241	2076.0779
3204.218	2138.5842
3205.7117	2077.751
3207.2056	2072.6313
3208.6995	2039.4899
3210.1934	2031.2159
3211.6873	2045.2854
3213.1809	2081.2427
3214.6748	2030.938
3216.1687	2001.4677
3217.6626	2023.2426
3219.1565	2038.9332
3220.6501	2057.7534
3222.144	2133.5269
3223.6379	2078.6338
3225.1318	2066.7844
3226.6257	2041.0809
3228.1196	2060.2354
3229.6133	2031.3053
3231.1072	2046.7605
3232.6011	2055.5818
3234.095	2024.1295
3235.5889	2034.048
3237.0825	2019.7845
3238.5764	2071.4785
3240.0703	2092.6035
3241.5642	2007.6564
3243.0581	2058.8877
3244.5518	2052.0759
3246.0457	2042
3247.5396	1999.2882
3249.0334	2025.5706
3250.5273	2021.092
3252.021	2058.1167
3253.5149	1979.6506
3255.0088	2039.318
3256.5027	2033.7825
3257.9966	2020.9373
3259.4902	2008.7821
3260.9841	2018.512
3262.478	2064.2957
3263.9719	1994.0151
3265.4658	2000.1815
3266.9595	2008.371
3268.4534	1996.0232
3269.9473	1986.7645
3271.4412	2025.2817
3272.9351	1996.958
3274.4287	2032.0746
3275.9226	2036.5343
3277.4165	2017.6523
3278.9104	1991.5865
3280.4043	2034.7314
3281.8979	2035.8445
3283.3918	2006.6165
3284.8857	2006.9369
3286.3796	2002.6797
3287.8735	1976.6027
3289.3674	2001.4072
3290.8611	1987.0183
3292.355	1990.1195
3293.8489	2018.734
3295.3428	1989.3654
3296.8367	1973.3969
3298.3303	1978.64
3299.8242	1991.2095
3301.3181	1949.5892
3302.812	2001.3663
3304.3059	1983.1858
3305.7996	1963.9436
3307.2935	1928.6565
3308.7874	2014.0801
3310.2813	1919.4802
3311.7751	1936.3604
3313.2688	1970.9147
3314.7627	2044.3282
3316.2566	1960.598
3317.7505	1943.0829
3319.2444	1978.8662
3320.738	1959.0245
3322.2319	1958.7601
3323.7258	2003.7455
3325.2197	1932.7881
3326.7136	1930.0538
3328.2073	1949.1788
3329.7012	1977.3335
3331.1951	1960.5892
3332.689	1995.889
3334.1829	1967.3374
3335.6765	1979.2174
3337.1704	2004.5709
3338.6643	1988.7942
3340.1582	1944.976
3341.6521	1926.905
3343.1458	1897.4774
3344.6396	1950.8889
3346.1335	1930.297
3347.6274	1956.3492
3349.1213	1972.3835
3350.6152	1960.4703
3352.1089	1942.0758
3353.6028	1931.1168
3355.0967	1963.3904
3356.5906	1943.3895
3358.0845	1923.1046
3359.5781	1954.4937
3361.072	1984.6444
3362.5659	1943.4397
3364.0598	1931.4979
3365.5537	1949.9221
3367.0474	1917
3368.5413	1919.6703
3370.0352	1921.6587
3371.5291	1986.2681
3373.0229	1959.6969
3374.5166	1952.0869
3376.0105	1974.5336
3377.5044	1991.5878
3378.9983	1921.6818
3380.4922	1915.7
3381.9858	1933.7162
3383.4797	1949.6199
3384.9736	1917.7401
3386.4675	1974.7849
3387.9614	1980.4828
3389.4551	1985.8137
3390.949	1935.6617
3392.4429	1929.2957
3393.9368	1961.8488
3395.4307	1962.7455
3396.9243	1938.2454
3398.4182	1958.1616
3399.9121	1996.8196
3401.406	1970.9895
3402.8999	1993.2822
3404.3936	1896.5878
3405.8875	1952.4092
3407.3813	1988.5446
3408.8752	1976.6187
3410.3691	1941.9146
3411.863	2036.2722
3413.3567	1958.9857
3414.8506	1916.3527
3416.3445	1862.5574
3417.8384	1916.8901
3419.3323	1916.8783
3420.8259	1922.1819
3422.3198	1925.2679
3423.8137	1934.249
3425.3076	1885.2681
3426.8015	1893.0902
3428.2952	1931.7224
3429.7891	1961.2197
3431.283	1951.7809
3432.7769	1907.4674
3434.2708	1858.2582
3435.7644	1941.1296
3437.2583	1974.3209
3438.7522	1914.2698
3440.2461	1923.6252
3441.74	1980.689
3443.2336	1926.3632
3444.7275	1877.3699
3446.2214	1873.653
3447.7153	1872.292
3449.2092	1938.6124
3450.7029	1931.5261
3452.1968	1924.1179
3453.6907	1888.2756
3455.1846	1880.5873
3456.6785	1884.541
3458.1721	1977.0636
3459.666	1919.4121
3461.1599	1892.2538
3462.6538	1907.8263
3464.1477	1906.4714
3465.6414	1893.5022
3467.1353	1960.7479
3468.6292	1952.5398
3470.123	1965.8625
3471.6169	1966.3339
3473.1108	1860
3474.6045	1865.1901
3476.0984	1915.1099
3477.5923	1920.849
3479.0862	1898.4186
3480.5801	1936.8549
3482.0737	1894.0521
3483.5676	1901.2842
3485.0615	1828.1963
3486.5554	1878.4144
3488.0493	1882.9797
3489.543	1907.1475
3491.0369	1940.1722
3492.5308	1863.7655
3494.0247	1934.9999
3495.5186	1924.1469
3497.0122	1863.3275
3498.5061	1859.9922
3500	1897.516
