100	3190.5432
101.49385	3128.0244
102.9877	3144.7488
104.48154	3204.873
105.9754	3220.7654
107.46925	3168.0718
108.9631	3149.3828
110.45694	3104.4194
111.95079	3014.4478
113.44464	2969.4849
114.93849	2990.395
116.43233	3035.6875
117.92619	3064.1555
119.42004	2996.7659
120.91389	3014.2917
122.40773	3055.3738
123.90158	3022.2378
125.39543	3010.0276
126.88928	2967.2439
128.38313	2997.2339
129.87698	3015.5298
131.37082	2986.1116
132.86467	2978.0139
134.35852	2981.2732
135.85237	2988.3396
137.34622	3031.5513
138.84007	3027.3333
140.33392	3027.3333
141.82777	3027.3333
143.32161	3218.1538
144.81546	3030.3596
146.30931	3002.5403
147.80316	2981.0566
149.29701	3032.47
150.79086	3060.9268
152.28471	3032.1086
153.77856	2987.759
155.27242	2995.2568
156.76625	3103.7195
158.2601	3031.0164
159.75395	3035.9448
161.2478	3040.9585
162.74165	3045.8889
164.2355	3066.7263
165.72935	3104.3325
167.22321	3066.9285
168.71704	3088.9583
170.21089	3151.0952
171.70474	3182.6521
173.19859	3105.7461
174.69244	3131.9326
176.18629	3132.5391
177.68015	3162.689
179.174	3145.8342
180.66783	3058.782
182.16168	3107.1575
183.65553	3157.8521
185.14938	3164.928
186.64323	3184.887
188.13708	3246.8074
189.63094	3327.8401
191.12479	3203.2344
192.61862	3285.0286
194.11247	3276.3938
195.60632	3214.9534
197.10017	3198.4902
198.59402	3274.0557
200.08788	3284.7239
201.58173	3263.021
203.07558	3223.667
204.56943	3223.6836
206.06326	3288.6348
207.55711	3147.2207
209.05096	3174.3716
210.54482	3166.5894
212.03867	3186.0857
213.53252	3222.4502
215.02637	3131.6936
216.52022	3153.0911
218.01405	3183.2073
219.5079	3226.6797
221.00175	3197.9312
222.49561	3084.0354
223.98946	3172.1628
225.48331	3205.1189
226.97716	3126.3892
228.47101	3071.8669
229.96484	3075.3164
231.45869	3081.6768
232.95255	3078.3792
234.4464	3043.7405
235.94025	3023.8071
237.4341	3042.927
238.92795	3082.3848
240.4218	3077.4033
241.91563	3120.3152
243.40948	3100.9285
244.90334	3102.5552
246.39719	3099.335
247.89104	3062.3916
249.38489	3059.0881
250.87874	3111.199
252.37259	3139.7249
253.86644	3148.0903
255.36028	3139.9868
256.85413	3120.6084
258.34799	3109.8611
259.84183	3119.6357
261.33566	3149.9729
262.82953	3173.5427
264.32336	3185.7478
265.81723	3197.7847
267.31107	3120.8298
268.80493	3137.6802
270.29877	3152.9365
271.79263	3158.1289
273.28647	3147.9531
274.7803	3102.0669
276.27417	3130.2292
277.76801	3115.7554
279.26187	3102.876
280.75571	3087.9861
282.24957	3084.7971
283.74341	3169.9583
285.23724	3124.3572
286.73111	3089.9541
288.22495	3092.1418
289.71881	3120.7024
291.21265	3136.4365
292.70651	3070.8875
294.20035	3081.896
295.69421	3073.5645
297.18805	3072.5808
298.68188	3078.4092
300.17575	3068.8271
301.66959	3014.8408
303.16345	2997.8503
304.65729	3006.9502
306.15115	2998.4377
307.64499	2976.6064
309.13885	2960.0432
310.63269	2862.0557
312.12653	2922.9045
313.62039	2946.6196
315.11423	2880.697
316.60809	2815.4907
318.10193	2878.9126
319.59579	2869.7695
321.08963	2780.5757
322.58347	2753.5947
324.07733	2793.3113
325.57117	2777.6204
327.06503	2590.2412
328.55887	2655.2134
330.05273	2630.678
331.54657	2655.2793
333.04044	2657.78
334.53427	2618.1677
336.02811	2587.6409
337.52197	2593.4773
339.01581	2560.5923
340.50967	2575.5132
342.00351	2615.231
343.49738	2647.0923
344.99121	2644.8198
346.48505	2573.0449
347.97891	2488.2603
349.47275	2490.97
350.96661	2512.0403
352.46045	2500.3711
353.95432	2448.26
355.44815	2370.5686
356.94202	2407.6621
358.43585	2456.6819
359.92969	2410.2407
361.42355	2312.9585
362.91739	2292.2712
364.41125	2343.28
365.90509	2285.0334
367.39896	2279.6807
368.89279	2314.8235
370.38666	2376.0532
371.88049	2426.592
373.37433	2339.542
374.86819	2265.4795
376.36203	2244.4497
377.8559	2258.5747
379.34973	2265.9231
380.8436	2244.6746
382.33743	2242.9753
383.83127	2208.6174
385.32513	2225.6851
386.81897	2226.1855
388.31284	2200.8052
389.80667	2178.9482
391.30054	2204.2444
392.79437	2210.9546
394.28824	2224.041
395.78207	2235.5759
397.27591	2214.2473
398.76978	2166.7776
400.26361	2154.7219
401.75748	2226.9292
403.25131	2186.5154
404.74518	2143.0527
406.23901	2141.0332
407.73288	2158.9463
409.22672	2145.2129
410.72055	2146.8955
412.21442	2127.2888
413.70825	2159.1206
415.20212	2149.5098
416.69595	2125.5061
418.18982	2142.9395
419.68365	2098.3533
421.17749	2179.8997
422.67136	2190.5806
424.16519	2158.9309
425.65906	2147.8792
427.15289	2180.8677
428.64676	2196.8088
430.14059	2136.9419
431.63446	2172.8379
433.1283	2148.8813
434.62213	2134.3826
436.116	2150.5652
437.60983	2137.6663
439.1037	2159.585
440.59753	2065.561
442.0914	2100.0464
443.58524	2087.8691
445.07907	2049.1306
446.57294	2101.2671
448.06677	2224.2031
449.56064	2138.0146
451.05447	2103.481
452.54834	2091.7517
454.04218	2086.6826
455.53604	2069.3418
457.02988	2031.6925
458.52371	2117.02
460.01758	2125
461.51141	2039.2892
463.00528	2008.7876
464.49911	2058.8284
465.99298	2099.8821
467.48682	2048.2986
468.98068	2068.1816
470.47452	2034.1805
471.96835	2033.0215
473.46222	2068.2939
474.95605	2090.2969
476.44992	2050.2649
477.94376	2087.5156
479.43762	2029.5225
480.93146	1972.2153
482.42529	1998.9504
483.91916	2055.5122
485.41299	2042.7198
486.90686	2004.0627
488.4007	2013.397
489.89456	2003.7655
491.3884	1971.4672
492.88226	1934.2307
494.3761	1918.6848
495.86993	1940.3542
497.3638	1952.2317
498.85764	1908.5022
500.3515	1922.7416
501.84534	1876.8618
503.3392	1845.1384
504.83304	1894.1772
506.3269	1859.3917
507.82074	1907.8068
509.31458	1815.3505
510.80844	1809.4009
512.30231	1823.696
513.79614	1795.9351
515.28998	1755.1379
516.78381	1815.5737
518.27771	1718.7854
519.77155	1752.5052
521.26538	1752.014
522.75922	1720.2456
524.25305	1712.7389
525.74695	1748.5089
527.24078	1752.7697
528.73462	1721.5919
530.22845	1746.879
531.72229	1744.1266
533.21619	1708.3605
534.71002	1686.9403
536.20386	1716.8778
537.69769	1727.9557
539.19159	1666.3969
540.68542	1738.8167
542.17926	1731.1666
543.6731	1670.6484
545.16693	1701.5095
546.66083	1777.0352
548.15466	1756.5598
549.6485	1735.3129
551.14233	1744.0471
552.63623	1707.9541
554.13007	1681.2065
555.6239	1728.8395
557.11774	1653.0844
558.61157	1700.1167
560.10547	1701.8953
561.5993	1697.0784
563.09314	1686.2028
564.58698	1682.6836
566.08087	1696.4658
567.57471	1671.1648
569.06854	1694.2791
570.56238	1723.8627
572.05621	1773.6603
573.55011	1744.4115
575.04395	1683.6327
576.53778	1718.1096
578.03162	1677.0115
579.52551	1697.5815
581.01935	1668.8357
582.51318	1672.0006
584.00702	1668.5756
585.50085	1650.5747
586.99475	1670.0886
588.48859	1747.8177
589.98242	1658.5781
591.47626	1677.0289
592.97009	1705.5613
594.46399	1687.033
595.95782	1659.9828
597.45166	1685.6775
598.9455	1667.4459
600.43939	1706.1024
601.93323	1615.8862
603.42706	1632.2853
604.9209	1669
606.41473	1667.7739
607.90863	1674.4781
609.40247	1719.6213
610.8963	1641.3593
612.39014	1685.4843
613.88403	1658.499
615.37787	1639.2649
616.8717	1664.7152
618.36554	1687.5688
619.85938	1663.0853
621.35327	1646.7257
622.84711	1661.9474
624.34094	1703.6346
625.83478	1705.2772
627.32867	1715.1451
628.82251	1760.9128
630.31635	1720.4904
631.81018	1637.7383
633.30402	1648.048
634.79791	1683.241
636.29175	1730.6646
637.78558	1748.8375
639.27942	1730.4642
640.77332	1722.1851
642.26715	1716.144
643.76099	1718.5277
645.25482	1716.8826
646.74866	1706.3219
648.24255	1731.0321
649.73639	1756.0952
651.23022	1726.1071
652.72406	1778.292
654.21796	1753.2321
655.71179	1737.9545
657.20563	1790.8547
658.69946	1809.5784
660.1933	1793.7385
661.68719	1786.1613
663.18103	1749.3324
664.67487	1786.5331
666.1687	1760.7227
667.66254	1785.6849
669.15643	1785.8777
670.65027	1794.5066
672.1441	1799.9226
673.63794	1729.0367
675.13184	1723.2277
676.62567	1776.1321
678.11951	1724.2543
679.61334	1770.6669
681.10718	1793.3402
682.60107	1773.0525
684.09491	1778.3358
685.58875	1764.5701
687.08258	1723.808
688.57648	1756.5387
690.07031	1770.402
691.56415	1756.6923
693.05798	1756.1826
694.55182	1779.1992
696.04572	1777.3998
697.53955	1706.4709
699.03339	1779.4185
700.52722	1760.329
702.02112	1776.5518
703.51495	1841.2646
705.00879	1870.2665
706.50262	1837.5524
707.99646	1851.3656
709.49036	1811.3253
710.98419	1910.0531
712.47803	1867.8248
713.97186	1832.5323
715.46576	1866.0886
716.95959	1913.1016
718.45343	1895.0269
719.94727	1847.0331
721.4411	1874.8907
722.935	1960.8
724.42883	1989.7992
725.92267	1959.4441
727.4165	1966.7142
728.91034	1999.9519
730.40424	1976.9127
731.89807	2053.5454
733.39191	1944.5822
734.88574	2003.9923
736.37964	1999.8611
737.87347	1971.2445
739.36731	1959.3884
740.86115	1965.9788
742.35498	1983.3735
743.84888	2038.525
745.34271	2014.0552
746.83655	1951.405
748.33038	1968.7251
749.82428	2024.8179
751.31812	2065.1692
752.81195	2052.9099
754.30579	1990.9365
755.79962	1996.7225
757.29352	1968.7528
758.78735	1976.3667
760.28119	2005.9584
761.77502	2007.2833
763.26892	2005.4927
764.76276	2024.7758
766.25659	2018.9838
767.75043	1966.4291
769.24426	1914.7927
770.73816	1939.2057
772.23199	1943.899
773.72583	1907.6116
775.21967	1913.0391
776.71356	1956.5925
778.2074	1912.8323
779.70123	1888.8977
781.19507	1928.3805
782.6889	1970.193
784.1828	1926.9032
785.67664	1916.5212
787.17047	1941.1428
788.66431	1945.0225
790.15814	1917.2094
791.65204	1881.9232
793.14587	1988.2296
794.63971	1990.8269
796.13354	1929.546
797.62744	1916.5286
799.12128	1974.5393
800.61511	2025.5598
802.10895	2003.176
803.60278	1986.363
805.09668	1978.4456
806.59052	1992.9462
808.08435	2101.7173
809.57819	2081.3533
811.07208	2040.757
812.56592	2047.8003
814.05975	2064.0581
815.55359	2110.8076
817.04742	2189.2043
818.54132	2126.3367
820.03516	2098.1685
821.52899	2170.0549
823.02283	2220.6765
824.51672	2211.7014
826.01056	2208.0852
827.50439	2242.1899
828.99823	2178.3745
830.49207	2248.949
831.98596	2224.3452
833.4798	2232.1624
834.97363	2297.3279
836.46747	2310.5752
837.96136	2265.2539
839.4552	2273.2378
840.94904	2356.6343
842.44287	2301.8669
843.93671	2240.9998
845.4306	2413.5264
846.92444	2400.3784
848.41827	2378.2766
849.91211	2361.9714
851.40601	2338.9104
852.89984	2386.9312
854.39368	2304.4387
855.88751	2356.6362
857.38135	2307.8472
858.87524	2373.2705
860.36908	2308.9255
861.86292	2263.8459
863.35675	2293.2161
864.85059	2298.8313
866.34448	2272.2185
867.83832	2289.7278
869.33215	2211.7588
870.82599	2274.2251
872.31989	2199.6145
873.81372	2180.9736
875.30756	2172.4705
876.80139	2123.7922
878.29523	2082.2202
879.78912	2063.3933
881.28296	2140.687
882.77679	2088.333
884.27063	2051.5383
885.76453	2069.7585
887.25836	2052.3779
888.7522	1982.1956
890.24603	1925.9983
891.73987	1916.7283
893.23376	1880.3911
894.7276	1907.9352
896.22144	1976.2699
897.71527	1941.5244
899.20917	1925.672
900.703	1874.0741
902.19684	1849.0963
903.69067	1862.9985
905.18451	1842.7306
906.67841	1809.7325
908.17224	1831.0592
909.66608	1845.2999
911.15991	1881.4924
912.65381	1847.1743
914.14764	1844.657
915.64148	1884.1062
917.13531	1921.2917
918.62915	1925.9512
920.12305	1908.3822
921.61688	1984.4177
923.11072	1960.3517
924.60455	1986.9589
926.09839	1992.6062
927.59229	1986.6985
929.08612	1966.6455
930.57996	1985.5637
932.07379	2061.345
933.56769	2099.7288
935.06152	2089.9126
936.55536	2036.3506
938.04919	2096.6873
939.54303	2107.5376
941.03693	2064.4968
942.53076	2055.6006
944.0246	2058.2214
945.51843	2074.5967
947.01233	2153.2007
948.50616	2144.1624
950	2051.1831
951.49384	2034.0905
952.98767	2084.9275
954.48157	2062.2773
955.9754	2008.1747
957.46924	1920.217
958.96307	1871.932
960.45697	1893.4314
961.95081	1843.3503
963.44464	1846.9614
964.93848	1769.0492
966.43231	1788.3207
967.92621	1728.3485
969.42004	1694.2661
970.91388	1648.4023
972.40771	1611.301
973.90161	1598.3788
975.39545	1569.8763
976.88928	1544.5099
978.38312	1517.7748
979.87695	1502.5074
981.37085	1459.7601
982.86469	1411.1259
984.35852	1425.8729
985.85236	1423.8479
987.34619	1387.5383
988.84009	1354.5867
990.33392	1319.4575
991.82776	1283.826
993.32159	1273.0452
994.81549	1328.5413
996.30933	1368.4138
997.80316	1313.7856
999.297	1268.7632
1000.7908	1233.2607
1002.2847	1224.3834
1003.7786	1255.0619
1005.2724	1265.1785
1006.7662	1238.8163
1008.2601	1255.9143
1009.754	1221.0327
1011.2478	1205.0325
1012.7416	1226.4454
1014.2355	1217.8109
1015.7294	1215.0273
1017.2232	1224.5973
1018.717	1210.9242
1020.2109	1184.7123
1021.7048	1196.1779
1023.1986	1173.8894
1024.6924	1246.9178
1026.1863	1220.5743
1027.6802	1209.4091
1029.174	1220.4253
1030.6678	1213.3315
1032.1617	1188.0529
1033.6555	1162.4237
1035.1494	1153.0569
1036.6432	1190.4021
1038.1371	1220.2716
1039.631	1270.8995
1041.1248	1236.6449
1042.6187	1196.8486
1044.1124	1194.5543
1045.6063	1215.3202
1047.1002	1222.8616
1048.594	1188.7603
1050.0879	1168.4001
1051.5817	1241.4568
1053.0756	1250.1902
1054.5695	1272.8326
1056.0632	1221.7504
1057.5571	1216
1059.051	1242.3134
1060.5448	1230.1537
1062.0387	1243.7341
1063.5325	1239.8091
1065.0264	1224.1827
1066.5203	1258.8281
1068.014	1220.7018
1069.5079	1202.9707
1071.0017	1218.3958
1072.4956	1211.1523
1073.9895	1255.2161
1075.4833	1279.6854
1076.9772	1266.5442
1078.4709	1224.799
1079.9648	1201.7639
1081.4587	1203.2782
1082.9525	1189
1084.4464	1187.6261
1085.9402	1180.665
1087.4341	1213.3912
1088.928	1189.0653
1090.4218	1190.4166
1091.9156	1219.3308
1093.4095	1204.7251
1094.9033	1207.6417
1096.3972	1223.6205
1097.891	1204.9865
1099.3849	1181.7659
1100.8788	1182.4454
1102.3726	1190.7246
1103.8665	1186.1709
1105.3602	1200.9042
1106.8541	1212.4526
1108.348	1191.2378
1109.8418	1209.7137
1111.3357	1179.8961
1112.8295	1148.6012
1114.3234	1156.342
1115.8173	1147.4885
1117.311	1158.0972
1118.8049	1114.5114
1120.2988	1219.5599
1121.7926	1171.8394
1123.2865	1171.1073
1124.7803	1160.9856
1126.2742	1193.9396
1127.7681	1217.37
1129.2618	1182.4751
1130.7557	1169.3594
1132.2495	1215.21
1133.7434	1219.0854
1135.2373	1217.2357
1136.7311	1180.1274
1138.225	1202.9847
1139.7188	1169.881
1141.2126	1195.792
1142.7065	1213.8596
1144.2003	1251.4722
1145.6942	1242.5568
1147.188	1212.495
1148.6819	1210.6627
1150.1758	1235.929
1151.6696	1276.0739
1153.1635	1241.0334
1154.6573	1218.9017
1156.1511	1245.47
1157.645	1265.1334
1159.1388	1228.1782
1160.6327	1225.3718
1162.1266	1256.0642
1163.6204	1252.7677
1165.1143	1282.6459
1166.608	1326.314
1168.1019	1280.1764
1169.5958	1237.7426
1171.0896	1278.0662
1172.5835	1291.7772
1174.0773	1263.288
1175.5712	1264.6299
1177.0651	1267.3877
1178.5588	1254.4227
1180.0527	1236.3215
1181.5466	1239.5089
1183.0404	1248.4725
1184.5343	1274.8877
1186.0281	1293.796
1187.522	1242.5919
1189.0159	1228.6069
1190.5096	1233.5929
1192.0035	1253.8295
1193.4973	1187.3253
1194.9912	1227.6802
1196.4851	1222.6591
1197.9789	1232.187
1199.4728	1226.4655
1200.9666	1202.4381
1202.4604	1203.4081
1203.9543	1228.7881
1205.4481	1222.542
1206.942	1197.0226
1208.4359	1250.4194
1209.9297	1192.5079
1211.4236	1201.7264
1212.9174	1152.7346
1214.4113	1208.4279
1215.9052	1227.191
1217.3989	1181.1283
1218.8928	1178.1914
1220.3866	1186.8569
1221.8805	1174.0338
1223.3744	1180.8226
1224.8682	1197.0875
1226.3621	1156.6345
1227.8558	1123.8635
1229.3497	1168.545
1230.8436	1161.1453
1232.3374	1198.1451
1233.8313	1167.0922
1235.3251	1171.3489
1236.819	1155.215
1238.3129	1195.1951
1239.8066	1203.5558
1241.3005	1169.2327
1242.7944	1179.9614
1244.2882	1218.0149
1245.7821	1209.1433
1247.2759	1216.3293
1248.7698	1215.1019
1250.2637	1185.5951
1251.7574	1164.2682
1253.2513	1193.5281
1254.7451	1194.801
1256.239	1264.5609
1257.7329	1234.7151
1259.2267	1231.7751
1260.7206	1209.6708
1262.2144	1202.4517
1263.7083	1240.3301
1265.2021	1215.9672
1266.6959	1192.0736
1268.1898	1257.0798
1269.6837	1254.7207
1271.1775	1285.035
1272.6714	1287.8234
1274.1652	1208.7699
1275.6591	1243.4241
1277.153	1313.4248
1278.6467	1272.9238
1280.1406	1264.0321
1281.6344	1268.5394
1283.1283	1269.2865
1284.6222	1269.243
1286.116	1244.496
1287.6099	1257.2983
1289.1036	1301.9158
1290.5975	1251.8114
1292.0914	1309.038
1293.5852	1309.9696
1295.0791	1313.6055
1296.5729	1262.3331
1298.0668	1270.3704
1299.5607	1286.4657
1301.0544	1273.356
1302.5483	1292.2631
1304.0422	1294.6837
1305.536	1277.8601
1307.0299	1244.925
1308.5237	1193.3843
1310.0176	1232.5216
1311.5115	1242.6281
1313.0052	1251
1314.4991	1248.1173
1315.9929	1159.3826
1317.4868	1255.8555
1318.9807	1235.3046
1320.4745	1267.4304
1321.9684	1250.8696
1323.4622	1267.7141
1324.9561	1272.5253
1326.45	1255.3405
1327.9437	1235.8822
1329.4376	1232.6448
1330.9315	1237.0378
1332.4253	1209.2527
1333.9192	1212.4526
1335.413	1214.7675
1336.9069	1158.1605
1338.4008	1175.9738
1339.8945	1178.8055
1341.3884	1183.3596
1342.8822	1191.2882
1344.3761	1231.1028
1345.87	1200.2023
1347.3638	1200.5413
1348.8577	1229.2522
1350.3514	1247.9775
1351.8453	1253.5635
1353.3392	1230.1116
1354.833	1191.6866
1356.3269	1182.4315
1357.8207	1177.8616
1359.3146	1255.3235
1360.8085	1188.4839
1362.3022	1248.4979
1363.7961	1300.1495
1365.29	1244.3556
1366.7838	1230.3748
1368.2777	1242.0682
1369.7715	1252.3788
1371.2654	1228.3712
1372.7593	1212.8199
1374.2531	1240.137
1375.7469	1242.8208
1377.2407	1236.9973
1378.7346	1254.4313
1380.2285	1245.8702
1381.7223	1260.5846
1383.2162	1247.163
1384.71	1277.0861
1386.2039	1260.5377
1387.6978	1327.7661
1389.1915	1290.0885
1390.6854	1239.8938
1392.1793	1269.8276
1393.6731	1256.0338
1395.167	1271.604
1396.6608	1287.2946
1398.1547	1300.7079
1399.6486	1261.3289
1401.1423	1258.0873
1402.6362	1296.0691
1404.13	1284.6964
1405.6239	1267.8401
1407.1178	1281.5553
1408.6116	1263.3121
1410.1055	1234.667
1411.5992	1304.4071
1413.0931	1290.1205
1414.587	1274.0618
1416.0808	1372.938
1417.5747	1286.6105
1419.0685	1262.4955
1420.5624	1320.0503
1422.0563	1311.5758
1423.55	1293.2496
1425.0439	1258.6543
1426.5378	1243.3956
1428.0316	1254.7235
1429.5255	1271.7495
1431.0193	1296.2642
1432.5132	1287.5714
1434.0071	1249.4237
1435.5009	1293.0154
1436.9948	1296.5367
1438.4885	1214.881
1439.9824	1227.6399
1441.4763	1298.6348
1442.9701	1246.4451
1444.464	1273.2853
1445.9578	1241.1781
1447.4517	1221.0519
1448.9456	1255.035
1450.4393	1287.8596
1451.9332	1247.2073
1453.4271	1230.0978
1454.9209	1207.1567
1456.4148	1179.322
1457.9086	1192.4785
1459.4025	1199.6432
1460.8964	1187.7914
1462.3901	1193.5298
1463.884	1181.8751
1465.3778	1183.0281
1466.8717	1179.6111
1468.3656	1185.3048
1469.8594	1226.4337
1471.3533	1210.0571
1472.847	1173.0607
1474.3409	1203.5344
1475.8348	1216.7861
1477.3286	1212.8444
1478.8225	1173.021
1480.3163	1250.4447
1481.8102	1273.4093
1483.3041	1194.7928
1484.7979	1218.8525
1486.2917	1246.7457
1487.7856	1215.5197
1489.2794	1230.4584
1490.7733	1257.5552
1492.2671	1224.8563
1493.761	1198.3954
1495.2549	1216.1893
1496.7487	1243.22
1498.2426	1229.3564
1499.7363	1260.8467
1501.2302	1271.9756
1502.7241	1315.7202
1504.2179	1256.8141
1505.7118	1305.5563
1507.2056	1200.7341
1508.6995	1240.2207
1510.1934	1262.214
1511.6871	1336.0859
1513.181	1360.5101
1514.6749	1324.2444
1516.1687	1341.6676
1517.6626	1353.4181
1519.1564	1361.0409
1520.6503	1345.1304
1522.1442	1334.7449
1523.6379	1312.8821
1525.1318	1297.2239
1526.6256	1328.0232
1528.1195	1359.7811
1529.6134	1388.8619
1531.1072	1381.6951
1532.6011	1364.4943
1534.0948	1416.9417
1535.5887	1434.9606
1537.0826	1371.7419
1538.5764	1426.4706
1540.0703	1403.9144
1541.5641	1365.5273
1543.058	1395.2936
1544.5519	1363.4115
1546.0457	1374.7579
1547.5396	1396.056
1549.0334	1355.7621
1550.5272	1362.0219
1552.0211	1411.4725
1553.5149	1391.9283
1555.0088	1401.347
1556.5027	1395.48
1557.9965	1385.48
1559.4904	1401.5331
1560.9841	1428.5079
1562.478	1436.0541
1563.9719	1411.4702
1565.4657	1371.11
1566.9596	1329.6166
1568.4534	1336.1658
1569.9473	1365.5031
1571.4412	1331.514
1572.9349	1363.2402
1574.4288	1358.9202
1575.9227	1351.5844
1577.4165	1339.2628
1578.9104	1322.7515
1580.4042	1378.729
1581.8981	1356.5251
1583.392	1330.5779
1584.8857	1354.4005
1586.3796	1343.0313
1587.8734	1359.4365
1589.3673	1374.2561
1590.8612	1360.0713
1592.355	1349.85
1593.8489	1326.2258
1595.3427	1309.647
1596.8365	1314.2565
1598.3304	1298.5223
1599.8242	1320.8864
1601.3181	1305.076
1602.812	1294.6963
1604.3058	1308.7395
1605.7997	1299.3907
1607.2935	1313.132
1608.7874	1295.0032
1610.2813	1252.9004
1611.775	1282.343
1613.2689	1298.0457
1614.7627	1251.2751
1616.2566	1247.7389
1617.7505	1296.2501
1619.2443	1281.239
1620.7382	1227.4175
1622.2319	1283.8357
1623.7258	1200.2725
1625.2197	1248.2146
1626.7135	1280.8115
1628.2074	1250.7236
1629.7012	1235.7903
1631.1951	1212.0707
1632.689	1194.014
1634.1827	1259.0299
1635.6766	1223.4772
1637.1705	1216.407
1638.6643	1196.8737
1640.1582	1163.3994
1641.652	1182.7211
1643.1459	1165.009
1644.6398	1176.5198
1646.1335	1172.4819
1647.6274	1154.4877
1649.1212	1150.1619
1650.6151	1176.0369
1652.109	1158.7926
1653.6028	1141.7125
1655.0967	1177.2069
1656.5905	1184.8173
1658.0844	1151.8918
1659.5782	1144.6271
1661.072	1145.7358
1662.5659	1116.9625
1664.0598	1104.8707
1665.5536	1116.9044
1667.0475	1142.0508
1668.5413	1150.4786
1670.0352	1114.4094
1671.5291	1110.7115
1673.0228	1087.2435
1674.5167	1082.2573
1676.0105	1110.8354
1677.5044	1066.7334
1678.9983	1077.1763
1680.4921	1067.2904
1681.986	1072.9747
1683.4797	1050.1144
1684.9736	1069.8577
1686.4675	1180.4399
1687.9613	1082.8361
1689.4552	1187.7531
1690.949	1095.8297
1692.4429	1072.5607
1693.9368	1064.7952
1695.4305	1037.3992
1696.9244	1061.4175
1698.4183	1048.1885
1699.9121	1071.7762
1701.406	1056.616
1702.8998	1062.7042
1704.3937	1042.3409
1705.8876	1049.739
1707.3813	1044.8412
1708.8752	1046.22
1710.369	1067.032
1711.8629	1037.1934
1713.3568	1021.8705
1714.8506	1078.4978
1716.3445	1043.1016
1717.8383	1048.8079
1719.3322	1049.918
1720.826	1044.8124
1722.3198	1062.7645
1723.8137	1056.3596
1725.3076	1047.6332
1726.8014	1039.5952
1728.2953	1071.6511
1729.7891	1050.3209
1731.283	1018.4322
1732.7769	1019.7007
1734.2706	1037.2366
1735.7645	1035.8706
1737.2583	1022.2288
1738.7522	1036.1129
1740.2461	1049.5172
1741.7399	1049.4128
1743.2338	1058.3796
1744.7275	1059.7511
1746.2214	1081.3699
1747.7153	1072.9283
1749.2091	1046.0712
1750.703	1039.1714
1752.1968	1020.2454
1753.6907	1032.4226
1755.1846	1071.3655
1756.6783	1074.5424
1758.1722	1059.3071
1759.6661	1074.7202
1761.1599	1088.412
1762.6538	1090.4049
1764.1476	1051.5135
1765.6415	1049.7001
1767.1354	1078.6515
1768.6292	1083.2832
1770.123	1057.5048
1771.6168	1088.9368
1773.1107	1063.615
1774.6046	1067.6074
1776.0984	1060.5103
1777.5923	1081.462
1779.0861	1072.4302
1780.58	1053.1672
1782.0739	1043.9296
1783.5676	1057.3529
1785.0615	1052.4891
1786.5554	1098.172
1788.0492	1078.6331
1789.5431	1114.6084
1791.0369	1108.2614
1792.5308	1076.7898
1794.0247	1059.158
1795.5184	1056.6896
1797.0123	1051.0771
1798.5061	1037.0278
1800	1056.5493
1801.4939	1054.432
1802.9877	1058.9445
1804.4816	1061
1805.9753	1040.3884
1807.4692	1035.7804
1808.9631	1029.854
1810.4569	1062.7881
1811.9508	1039.7555
1813.4446	1051.4492
1814.9385	1039.0809
1816.4324	1055.8811
1817.9261	1061.0992
1819.42	1054.865
1820.9139	1074.7081
1822.4077	1022.8942
1823.9016	982.13965
1825.3954	1000.324
1826.8893	1023.2119
1828.3832	1025.8584
1829.877	960.90576
1831.3708	976.20306
1832.8646	998.39282
1834.3585	992.36639
1835.8524	988.75653
1837.3462	996.47522
1838.8401	999.90845
1840.3339	962.53583
1841.8278	921.16577
1843.3217	947.97009
1844.8154	972.45764
1846.3093	970.79285
1847.8032	970.81018
1849.297	956.79236
1850.7909	944.46625
1852.2847	955.94916
1853.7786	980.3363
1855.2725	989.51483
1856.7662	970.31146
1858.2601	980.25873
1859.7539	1014.4672
1861.2478	1013.6149
1862.7417	991.48877
1864.2355	985.02551
1865.7294	983.37549
1867.2231	965.46313
1868.717	991.78107
1870.2109	1018.2147
1871.7047	1044.9568
1873.1986	1036.4633
1874.6924	1021.8361
1876.1863	1028.0924
1877.6802	1013.5728
1879.174	1035.4471
1880.6678	1034.1429
1882.1617	1017.3619
1883.6555	1018.5563
1885.1494	1048.338
1886.6432	1054.0629
1888.1371	1034.3058
1889.631	1013.3893
1891.1248	1017.8718
1892.6187	1022.4579
1894.1124	1026.5244
1895.6063	1018.6399
1897.1002	1008.4356
1898.594	1028.9752
1900.0879	1008.7252
1901.5817	1011.8136
1903.0756	1019.5994
1904.5695	1034.7698
1906.0632	1059.5681
1907.5571	1008.9003
1909.051	971.75922
1910.5448	1019.9985
1912.0387	1037.694
1913.5325	1013.8173
1915.0264	1022.108
1916.5203	1047.0076
1918.014	1002.2997
1919.5079	1008.6937
1921.0017	1016.0901
1922.4956	1012.0723
1923.9895	1025.2966
1925.4833	1047.1891
1926.9772	1016.9752
1928.4709	1017.2183
1929.9648	997.77643
1931.4587	992.3515
1932.9525	1008.2463
1934.4464	1004.2546
1935.9402	999.9502
1937.4341	964.6449
1938.928	967.74768
1940.4218	970.54205
1941.9156	956.88885
1943.4095	952.63397
1944.9033	955.909
1946.3972	975.67163
1947.891	949.11951
1949.3849	952.89124
1950.8788	988.09174
1952.3726	989.77075
1953.8665	955.37683
1955.3602	936.13568
1956.8541	912.22144
1958.348	930.65527
1959.8418	952.63812
1961.3357	928.47473
1962.8295	925
1964.3234	919.82538
1965.8173	934.4021
1967.311	942.42285
1968.8049	937.2395
1970.2988	924.65759
1971.7926	932.02228
1973.2865	909.6095
1974.7803	890.30457
1976.2742	899.1615
1977.7681	920.04968
1979.2618	913.04181
1980.7557	930.01227
1982.2495	929.62152
1983.7434	881.87708
1985.2373	885.8432
1986.7311	883.17773
1988.225	915.40448
1989.7188	909.62903
1991.2126	898.03436
1992.7065	905.88831
1994.2003	908.30023
1995.6942	942.83105
1997.188	952.66724
1998.6819	964.20337
2000.1758	962.29376
2001.6696	932.75012
2003.1635	923.23108
2004.6573	936.27924
2006.1511	943.96729
2007.645	924.84973
2009.1388	910.17584
2010.6327	940.43134
2012.1266	948.68933
2013.6204	962.72638
2015.1143	948.44501
2016.608	927.39545
2018.1019	945.69763
2019.5958	896.82532
2021.0896	900.35211
2022.5835	952.82568
2024.0773	962.69763
2025.5712	952.31348
2027.0651	1009.2092
2028.5588	943.04614
2030.0527	961.07111
2031.5466	967.32678
2033.0404	1030.4619
2034.5343	945.74707
2036.0281	996.69244
2037.522	965.84711
2039.0159	1022.6082
2040.5096	974.82904
2042.0035	985.672
2043.4973	983.78845
2044.9912	1006.4332
2046.4851	977.79865
2047.9789	982.73816
2049.4727	989
2050.9666	986.9715
2052.4604	981.54291
2053.9543	968.50043
2055.4482	943.50897
2056.9419	971.58704
2058.4358	974.41217
2059.9297	985.44202
2061.4236	1010.5856
2062.9175	1010.71
2064.4111	1036.37
2065.905	1007.7665
2067.3989	1000.2324
2068.8928	1013.457
2070.3867	1009.4362
2071.8804	990.30579
2073.3743	959.92529
2074.8682	948.98315
2076.3621	947.867
2077.856	960.8988
2079.3499	971.00006
2080.8435	940.85785
2082.3374	943.29584
2083.8313	947.80121
2085.3252	965.50891
2086.8191	937.23828
2088.3127	961.06836
2089.8066	939.57892
2091.3005	968.42993
2092.7944	946.00964
2094.2883	899.54034
2095.782	928.40527
2097.2759	919.37189
2098.7698	923.5993
2100.2637	954.62653
2101.7576	900.0155
2103.2512	954.6853
2104.7451	911.95056
2106.239	854.20795
2107.7329	921.92877
2109.2268	912.05823
2110.7205	932.34119
2112.2144	947.27814
2113.7083	910.69495
2115.2021	907.12354
2116.696	911.17542
2118.1897	889.1814
2119.6836	877.51294
2121.1775	902.20422
2122.6714	888.5246
2124.1653	890.76453
2125.6589	847.57373
2127.1528	853.03766
2128.6467	880.00238
2130.1406	900.29828
2131.6345	914.17676
2133.1282	905.32019
2134.6221	923.90143
2136.116	913.93683
2137.6099	887.58496
2139.1038	908.74976
2140.5977	899.63312
2142.0913	897.19366
2143.5852	879.00592
2145.0791	900.05798
2146.573	924.19562
2148.0669	917.9126
2149.5605	916
2151.0544	945.79791
2152.5483	911.66992
2154.0422	866.55225
2155.5361	897.88843
2157.0298	895.02856
2158.5237	897.27509
2160.0176	920.49207
2161.5115	954.6264
2163.0054	952.15717
2164.499	944.25476
2165.9929	911.0166
2167.4868	927.05194
2168.9807	917.65002
2170.4746	897.08551
2171.9683	928.72491
2173.4622	923.73181
2174.9561	937.76123
2176.45	962.92957
2177.9438	961.70331
2179.4375	941.77411
2180.9314	956.58569
2182.4253	975.7868
2183.9192	944.78668
2185.4131	918.30975
2186.9067	1000.2722
2188.4006	995.2666
2189.8945	954.59332
2191.3884	981.14789
2192.8823	969.46149
2194.376	997.01355
2195.8699	1016.6891
2197.3638	976.72607
2198.8577	934.12262
2200.3516	980.40479
2201.8455	1040.5078
2203.3391	943.78052
2204.833	951.59595
2206.3269	996.78479
2207.8208	964.55078
2209.3147	1007.4749
2210.8083	991.22241
2212.3022	955.97601
2213.7961	968.45197
2215.29	956.75739
2216.7839	949.76935
2218.2776	980.55096
2219.7715	961.46155
2221.2654	950.57593
2222.7593	961.59314
2224.2532	1012.6091
2225.7468	970.64111
2227.2407	941.0343
2228.7346	962.71338
2230.2285	959.10449
2231.7224	945.74213
2233.2161	985.73975
2234.71	893.19135
2236.2039	980.25952
2237.6978	984.36053
2239.1917	938.61163
2240.6853	945.88092
2242.1792	946.78882
2243.6731	959.49298
2245.167	973.49756
2246.6609	968.2666
2248.1545	945.61292
2249.6484	929.19788
2251.1423	946.35608
2252.6362	950.82562
2254.1301	925.64612
2255.624	927.65076
2257.1177	925
2258.6116	924.35193
2260.1055	921.91992
2261.5994	905.49292
2263.0933	948.64758
2264.5869	896.4024
2266.0808	903.17188
2267.5747	906
2269.0686	923.44244
2270.5625	913.65863
2272.0562	891.49463
2273.55	869.77301
2275.0439	881.0365
2276.5378	900.8125
2278.0317	878.05609
2279.5254	878.24939
2281.0193	854.46906
2282.5132	892.68048
2284.0071	886.22083
2285.501	867.23712
2286.9946	883.84662
2288.4885	892.99927
2289.9824	909.77783
2291.4763	926.82495
2292.9702	942.63507
2294.4639	927.81427
2295.9578	857.39453
2297.4517	896.67084
2298.9456	884.16431
2300.4395	898.88824
2301.9331	867.48108
2303.427	859.22131
2304.9209	886.94525
2306.4148	867.42029
2307.9087	860.00262
2309.4023	843.76385
2310.8962	826.07544
2312.3901	852.43396
2313.884	882.55768
2315.3779	903.2702
2316.8718	897.50885
2318.3655	892.98328
2319.8594	871.91357
2321.3533	858.20709
2322.8472	915.0722
2324.3411	891.26733
2325.8347	859.08466
2327.3286	885.11786
2328.8225	899.92291
2330.3164	952.38226
2331.8103	872.8111
2333.304	946.30542
2334.7979	886.14374
2336.2917	873.08026
2337.7856	870.45667
2339.2795	871.99768
2340.7732	892.12372
2342.2671	895.44659
2343.761	913.2182
2345.2549	911.84686
2346.7488	917.9613
2348.2424	930.77753
2349.7363	925.21198
2351.2302	904.60181
2352.7241	915.30756
2354.218	907.47644
2355.7117	966.39044
2357.2056	907.89539
2358.6995	903.60437
2360.1934	963.86786
2361.6873	902.64899
2363.1809	886.45258
2364.6748	905.44904
2366.1687	912.87299
2367.6626	903.84113
2369.1565	930.30261
2370.6501	939.95764
2372.144	927.63251
2373.6379	918.49725
2375.1318	940.50977
2376.6257	914.12396
2378.1196	891.65387
2379.6133	932.65326
2381.1072	965.10016
2382.6011	938.85712
2384.095	953.13165
2385.5889	932.86774
2387.0825	938.79224
2388.5764	926.86005
2390.0703	915.88733
2391.5642	949.79321
2393.0581	916.84711
2394.5518	907.47162
2396.0457	933.14758
2397.5396	966.27924
2399.0334	945.34314
2400.5273	937.85022
2402.021	1012.0709
2403.5149	922.95538
2405.0088	1021.7213
2406.5027	896.77209
2407.9966	964.33173
2409.4902	950.12408
2410.9841	949.26782
2412.478	930.58337
2413.9719	961.0246
2415.4658	981.94464
2416.9595	968.57178
2418.4534	952.79376
2419.9473	961.09064
2421.4412	951.55499
2422.9351	951.19751
2424.4287	942.02667
2425.9226	894.18884
2427.4165	948.87146
2428.9104	948.2146
2430.4043	965.64075
2431.8979	962.51312
2433.3918	966.86401
2434.8857	950.87585
2436.3796	937.29175
2437.8735	961.26227
2439.3674	934.62427
2440.8611	934.32825
2442.355	915.18292
2443.8489	921.66266
2445.3428	945.11859
2446.8367	928.15765
2448.3303	912.47717
2449.8242	943.17413
2451.3181	965.68231
2452.812	957.56946
2454.3059	942.92651
2455.7996	957.13367
2457.2935	960.67969
2458.7874	949.84949
2460.2813	936.72076
2461.7751	915.47986
2463.2688	935.37787
2464.7627	952.66699
2466.2566	938.11682
2467.7505	940.78186
2469.2444	928.14056
2470.738	899.47986
2472.2319	905.12683
2473.7258	947.70654
2475.2197	924.85645
2476.7136	899.58057
2478.2073	918.26068
2479.7012	946
2481.1951	918.383
2482.689	932.22644
2484.1829	941.88483
2485.6765	929.8811
2487.1704	922.41455
2488.6643	927.54779
2490.1582	992.47968
2491.6521	927.63153
2493.1458	950.32776
2494.6396	933.73334
2496.1335	920.83478
2497.6274	920.30377
2499.1213	949.01965
2500.6152	949.39984
2502.1089	932.44617
2503.6028	946.51288
2505.0967	940.92047
2506.5906	968.20361
2508.0845	927.87848
2509.5781	922.09991
2511.072	929.47125
2512.5659	950.1662
2514.0598	925
2515.5537	936.32141
2517.0474	941.50208
2518.5413	949.58215
2520.0352	970.94135
2521.5291	982.42938
2523.0229	995.71704
2524.5166	948.22681
2526.0105	940.04022
2527.5044	984.41217
2528.9983	986.22906
2530.4922	965.23322
2531.9858	964.10449
2533.4797	966.37885
2534.9736	953.3587
2536.4675	940.29993
2537.9614	967.80292
2539.4551	954.57709
2540.949	935.39514
2542.4429	969.89008
2543.9368	972.03204
2545.4307	948.13678
2546.9243	944.95087
2548.4182	930.54883
2549.9121	961.08997
2551.406	931.14441
2552.8999	941.79907
2554.3936	984.21198
2555.8875	944.83789
2557.3813	933.01862
2558.8752	963.30109
2560.3691	949.51031
2561.863	949.37445
2563.3567	978.60999
2564.8506	949.98242
2566.3445	1001.5206
2567.8384	983.54968
2569.3323	962.29248
2570.8259	991.46625
2572.3198	976.25409
2573.8137	963.83356
2575.3076	972.36218
2576.8015	985.10413
2578.2952	997.24347
2579.7891	1025.4561
2581.283	1013.3204
2582.7769	986.50995
2584.2708	949.64948
2585.7644	988.354
2587.2583	999.94434
2588.7522	996.04254
2590.2461	998.7182
2591.74	1006.2797
2593.2336	987.76807
2594.7275	1016.2417
2596.2214	1010.1611
2597.7153	975.31024
2599.2092	942.2373
2600.7029	982.69714
2602.1968	964.92975
2603.6907	985.01221
2605.1846	991.47333
2606.6785	957.72705
2608.1721	1001.2735
2609.666	1008.3051
2611.1599	998.26312
2612.6538	1015.7709
2614.1477	949.59766
2615.6414	994.0777
2617.1353	1027.4409
2618.6292	990.87988
2620.123	1001.4033
2621.6169	989.74017
2623.1108	984.2652
2624.6045	963.09412
2626.0984	991.84821
2627.5923	974.05566
2629.0862	996.89545
2630.5801	1014.4639
2632.0737	1001.0455
2633.5676	1015.5034
2635.0615	1012.5286
2636.5554	991.06226
2638.0493	984.23297
2639.543	973.37012
2641.0369	996.51526
2642.5308	992.02795
2644.0247	1008.8067
2645.5186	992.39679
2647.0122	1001.8324
2648.5061	983.03223
2650	1003.7156
2651.4939	993.43036
2652.9878	988.82886
2654.4814	991.48615
2655.9753	1005.2745
2657.4692	1021.3263
2658.9631	995.29291
2660.457	989.17572
2661.9507	984.17163
2663.4446	1013.8794
2664.9385	1052.2155
2666.4324	1032.8502
2667.9263	970.12695
2669.4199	995.76831
2670.9138	1016.2668
2672.4077	999.45844
2673.9016	970.83789
2675.3955	994.69421
2676.8892	1014.6246
2678.3831	1014.7668
2679.877	1018.3129
2681.3708	1003.922
2682.8647	1016.3079
2684.3586	1007.0795
2685.8523	1009.4634
2687.3462	1046.5183
2688.8401	998.22943
2690.334	1020.4501
2691.8279	998.79846
2693.3215	987.03491
2694.8154	1011.4237
2696.3093	993.05237
2697.8032	1022.3881
2699.2971	980.59729
2700.7908	993.68481
2702.2847	1022.7155
2703.7786	1024.8232
2705.2725	1037.3013
2706.7664	1062.5311
2708.26	1040.3838
2709.7539	1043.8235
2711.2478	1025.927
2712.7417	1052.8489
2714.2356	1005.5112
2715.7292	1030.6677
2717.2231	1002.6148
2718.717	1009.0684
2720.2109	1039.1718
2721.7048	1023.733
2723.1985	1003.8983
2724.6924	1023.8416
2726.1863	1043.2886
2727.6802	982.41302
2729.1741	1027.1213
2730.6677	1006.1108
2732.1616	1021.1188
2733.6555	1033.26
2735.1494	1040.0232
2736.6433	1028.9783
2738.137	1019.2291
2739.6309	1012.2582
2741.1248	1029.375
2742.6187	1011.0828
2744.1125	1028.0809
2745.6064	1009.9929
2747.1001	1035.6788
2748.594	1018.7631
2750.0879	1034.6093
2751.5818	1055.8971
2753.0757	1023.9266
2754.5693	985.92279
2756.0632	1042.3625
2757.5571	1052.0845
2759.051	1023.6152
2760.5449	1065.0817
2762.0386	1076.2751
2763.5325	1041.3875
2765.0264	1019.4347
2766.5203	1046.0563
2768.0142	1033.5215
2769.5078	1027.3466
2771.0017	1009.5331
2772.4956	1009.8724
2773.9895	1034.3411
2775.4834	1025.3289
2776.9771	1016.0828
2778.4709	1032.8265
2779.9648	1027.3542
2781.4587	985.14374
2782.9526	1004.7148
2784.4463	1014.2033
2785.9402	999.62854
2787.4341	1008.5032
2788.928	999.63153
2790.4219	1046.4944
2791.9155	1028.051
2793.4094	1034.2048
2794.9033	1008.1756
2796.3972	1022.2311
2797.8911	1051.9919
2799.3848	1026.1174
2800.8787	1018.7327
2802.3726	1021.0284
2803.8665	984.47949
2805.3604	983.80646
2806.8542	1029.0081
2808.3479	1026.3694
2809.8418	1025.17
2811.3357	1008.6776
2812.8296	1009.782
2814.3235	1032.58
2815.8171	1015.3733
2817.311	1004.8869
2818.8049	1019.9589
2820.2988	1003.6334
2821.7927	1009.5148
2823.2864	1006.3552
2824.7803	998.1311
2826.2742	999.85089
2827.7681	1027.212
2829.262	1016.0144
2830.7556	1021.5668
2832.2495	1018.7806
2833.7434	984.84601
2835.2373	1011.2447
2836.7312	1010.3703
2838.2249	1000.0734
2839.7188	1001.903
2841.2126	1023.611
2842.7065	1029.698
2844.2004	985.91779
2845.6941	992.34747
2847.188	984.89392
2848.6819	1003.0677
2850.1758	1003.7645
2851.6697	993.92792
2853.1633	990.68591
2854.6572	1003.3984
2856.1511	994.74646
2857.645	1007.4802
2859.1389	981.51044
2860.6326	1022.9282
2862.1265	1022.7697
2863.6204	1012.177
2865.1143	1003.3025
2866.6082	1035.8438
2868.1021	1005.445
2869.5957	1001.7014
2871.0896	989.32623
2872.5835	1002.3372
2874.0774	1010.52
2875.5713	986.9743
2877.0649	979.24805
2878.5588	971.67932
2880.0527	981.56531
2881.5466	1000.526
2883.0405	1000.526
2884.5342	1056.9462
2886.0281	1011.1169
2887.522	1011.423
2889.0159	980.33618
2890.5098	997.27155
2892.0034	1024.7725
2893.4973	1007.5352
2894.9912	986.25812
2896.4851	991.03473
2897.979	977.33044
2899.4727	1028.9183
2900.9666	996.56433
2902.4604	1014.4225
2903.9543	990.71619
2905.4482	1003.4268
2906.9419	1005.2076
2908.4358	1004.5592
2909.9297	991.8736
2911.4236	981.2439
2912.9175	1029.9833
2914.4111	1004.5616
2915.905	1005.9536
2917.3989	990.24719
2918.8928	1003.5386
2920.3867	1026.7733
2921.8804	962.49396
2923.3743	955.23468
2924.8682	993.81213
2926.3621	982.28375
2927.856	965.76282
2929.3499	961.59082
2930.8435	987.13446
2932.3374	983.40625
2933.8313	993.50311
2935.3252	991.48615
2936.8191	1004.5353
2938.3127	988.21118
2939.8066	989.23895
2941.3005	994.91864
2942.7944	984.63422
2944.2883	1016.4943
2945.782	1010.3748
2947.2759	984.63348
2948.7698	979.91113
2950.2637	988.22253
2951.7576	986.65454
2953.2512	986.88928
2954.7451	1033.7874
2956.239	1016.5233
2957.7329	1025.6775
2959.2268	1035.1307
2960.7205	1027.5031
2962.2144	967.27582
2963.7083	987.96265
2965.2021	971.05688
2966.696	1003.9443
2968.1897	1000.4744
2969.6836	1022.1777
2971.1775	1020.5218
2972.6714	995.8302
2974.1653	975.55829
2975.6589	999.23346
2977.1528	999.05713
2978.6467	985.01117
2980.1406	985.53979
2981.6345	1006.6603
2983.1282	1028.0333
2984.6221	994.38849
2986.116	1020.9917
2987.6099	1023.5173
2989.1038	989.78967
2990.5977	989.01154
2992.0913	985.51947
2993.5852	992.71667
2995.0791	1013.1422
2996.573	1038.4377
2998.0669	1011.5508
2999.5605	1010.4431
3001.0544	1000.5956
3002.5483	1006.6713
3004.0422	988.42737
3005.5361	1019.4645
3007.0298	1042.1599
3008.5237	991.58356
3010.0176	1009.6584
3011.5115	995.85455
3013.0054	1014.1497
3014.499	1017.2156
3015.9929	1007.4929
3017.4868	1031.6332
3018.9807	996.79639
3020.4746	982.97522
3021.9683	984.86194
3023.4622	1019.7883
3024.9561	1019.6712
3026.45	965.62506
3027.9438	992.80109
3029.4375	1003.467
3030.9314	1016.1115
3032.4253	991.69415
3033.9192	1014.8155
3035.4131	1011.497
3036.9067	1010.6656
3038.4006	1007.9026
3039.8945	1014.1476
3041.3884	996.94763
3042.8823	982.66852
3044.376	1010.3381
3045.8699	1001.2964
3047.3638	977.95459
3048.8577	987.33801
3050.3516	1009.0003
3051.8455	1003.342
3053.3391	1008.5123
3054.833	969.59509
3056.3269	993.6402
3057.8208	994.63513
3059.3147	1028.7574
3060.8083	1014.8705
3062.3022	998.5907
3063.7961	957.22571
3065.29	1021.2727
3066.7839	1011.2036
3068.2776	976.32452
3069.7715	995.57184
3071.2654	1017.5402
3072.7593	998.62286
3074.2532	1009.6486
3075.7468	1001.8505
3077.2407	1023.0355
3078.7346	1034.1689
3080.2285	1003.9241
3081.7224	1006.3438
3083.2161	1004.5444
3084.71	1017.6353
3086.2039	999.47913
3087.6978	996.58759
3089.1917	979.48456
3090.6853	981.76379
3092.1792	941.42377
3093.6731	1010.676
3095.167	944.3078
3096.6609	1001.9375
3098.1545	983.33844
3099.6484	1004.6313
3101.1423	1009.3632
3102.6362	996.65729
3104.1301	966.52496
3105.624	973.44165
3107.1177	1016.6037
3108.6116	1030.4871
3110.1055	975.03552
3111.5994	1023.8772
3113.0933	976.90747
3114.5869	970.57605
3116.0808	1000.1411
3117.5747	1016.8723
3119.0686	1028.7245
3120.5625	998.6347
3122.0562	1018.2393
3123.55	1004.0271
3125.0439	1010.7213
3126.5378	1007.9104
3128.0317	1005.4181
3129.5254	989.19067
3131.0193	983.42102
3132.5132	970.21252
3134.0071	986.73999
3135.501	995.28638
3136.9946	962.79919
3138.4885	952.30249
3139.9824	993.29877
3141.4763	1014.4372
3142.9702	971.16907
3144.4639	961.51489
3145.9578	978.70807
3147.4517	981.99011
3148.9456	1002.8824
3150.4395	1042.5017
3151.9331	1040.3582
3153.427	1018.0964
3154.9209	986.23669
3156.4148	998.03632
3157.9087	987.18884
3159.4023	970.19489
3160.8962	1009.311
3162.3901	970.00702
3163.884	998.78601
3165.3779	1016.7671
3166.8718	969.68573
3168.3655	944.89948
3169.8594	956.50873
3171.3533	1015.8384
3172.8472	982.31
3174.3411	1008.6799
3175.8347	989.08118
3177.3286	962.58252
3178.8225	967.07245
3180.3164	1013.534
3181.8103	958.7229
3183.304	999.72626
3184.7979	987.60931
3186.2917	947.73621
3187.7856	947.21436
3189.2795	1045.0833
3190.7732	1003.5427
3192.2671	951.42633
3193.761	958.7218
3195.2549	958.33142
3196.7488	951.52576
3198.2424	977.15344
3199.7363	964.75659
3201.2302	923.43762
3202.7241	992.46234
3204.218	982.47809
3205.7117	966.10004
3207.2056	989.90491
3208.6995	970.08661
3210.1934	956.01544
3211.6873	998.77502
3213.1809	973.80377
3214.6748	967.3042
3216.1687	955.34839
3217.6626	971.9906
3219.1565	983.4032
3220.6501	980.38904
3222.144	909.52423
3223.6379	967.54932
3225.1318	986.26941
3226.6257	986.47498
3228.1196	988.80994
3229.6133	1023.1059
3231.1072	964.70978
3232.6011	985.30292
3234.095	984.6217
3235.5889	967.33948
3237.0825	977.20917
3238.5764	954.56439
3240.0703	957.62714
3241.5642	995.47919
3243.0581	992.39081
3244.5518	989.76093
3246.0457	973.85608
3247.5396	940.17194
3249.0334	957.63043
3250.5273	928.85516
3252.021	937.50903
3253.5149	959.06793
3255.0088	898.22559
3256.5027	959.38367
3257.9966	945.00623
3259.4902	931.06885
3260.9841	960.27014
3262.478	976.90912
3263.9719	947.00189
3265.4658	953.77991
3266.9595	925.86499
3268.4534	953.77161
3269.9473	973.92731
3271.4412	954.55463
3272.9351	982.08112
3274.4287	985.04785
3275.9226	964.30298
3277.4165	992.16357
3278.9104	967.5058
3280.4043	916.84662
3281.8979	973.37292
3283.3918	965.46228
3284.8857	956.38739
3286.3796	981.59991
3287.8735	964.29633
3289.3674	941.56293
3290.8611	934.44086
3292.355	944.30426
3293.8489	925.04749
3295.3428	933.67798
3296.8367	943.19843
3298.3303	940.76129
3299.8242	906.84729
3301.3181	905.87372
3302.812	976.54724
3304.3059	963.26923
3305.7996	926.7417
3307.2935	891.59979
3308.7874	939.38135
3310.2813	950.35443
3311.7751	934.81982
3313.2688	946.70026
3314.7627	919.56427
3316.2566	922.29938
3317.7505	948.24872
3319.2444	917
3320.738	913.68304
3322.2319	912.50409
3323.7258	932.01978
3325.2197	922.46826
3326.7136	943.91138
3328.2073	923.15765
3329.7012	935.01135
3331.1951	882.74506
3332.689	908.37036
3334.1829	925.20166
3335.6765	944.77716
3337.1704	909.146
3338.6643	933.41174
3340.1582	902.41443
3341.6521	912.09497
3343.1458	893.98328
3344.6396	893.98615
3346.1335	896.0282
3347.6274	962.95233
3349.1213	941.72382
3350.6152	950.5296
3352.1089	926.46979
3353.6028	904.08087
3355.0967	901.19855
3356.5906	916.59106
3358.0845	925.91864
3359.5781	954.05072
3361.072	883.75757
3362.5659	881.44751
3364.0598	930.13623
3365.5537	967.44153
3367.0474	935.38214
3368.5413	877.98895
3370.0352	899.52802
3371.5291	916.93536
3373.0229	941.37268
3374.5166	939.85602
3376.0105	952.63678
3377.5044	938.29395
3378.9983	936.99103
3380.4922	918.64734
3381.9858	912.92041
3383.4797	934.58185
3384.9736	926.35565
3386.4675	902.64526
3387.9614	921.20636
3389.4551	917.52771
3390.949	900.82764
3392.4429	944.49292
3393.9368	922.84308
3395.4307	923.37097
3396.9243	939.99438
3398.4182	883.22144
3399.9121	864.81281
3401.406	959.83643
3402.8999	912.6731
3404.3936	953.48944
3405.8875	893.82172
3407.3813	952.17578
3408.8752	917.24744
3410.3691	918.3902
3411.863	910.95813
3413.3567	867.98511
3414.8506	868.93518
3416.3445	898.47015
3417.8384	869.61011
3419.3323	914.90234
3420.8259	913.85223
3422.3198	915.50201
3423.8137	954.38037
3425.3076	943.98096
3426.8015	906.60895
3428.2952	927.255
3429.7891	919.46136
3431.283	895.41101
3432.7769	896.35364
3434.2708	918.70154
3435.7644	913.69818
3437.2583	928.90802
3438.7522	884.61047
3440.2461	877
3441.74	882.84875
3443.2336	877.69403
3444.7275	917.44531
3446.2214	958.64935
3447.7153	891.99994
3449.2092	892.58667
3450.7029	856.6839
3452.1968	931.06268
3453.6907	895.76221
3455.1846	897.93982
3456.6785	905.23285
3458.1721	913.13239
3459.666	891.36554
3461.1599	892.8208
3462.6538	919.22394
3464.1477	903.70648
3465.6414	919.83905
3467.1353	914.74988
3468.6292	905.62201
3470.123	863.70728
3471.6169	814.11182
3473.1108	922.41913
3474.6045	886.96582
3476.0984	897.95795
3477.5923	912.66528
3479.0862	905.53491
3480.5801	918.56201
3482.0737	944.14069
3483.5676	903.20453
3485.0615	903.85187
3486.5554	893.8288
3488.0493	901.7475
3489.543	897.78802
3491.0369	878.53473
3492.5308	837.66858
3494.0247	925.79675
3495.5186	889.27979
3497.0122	891.43158
3498.5061	877.00708
3500	919.70691
