100	2671.9827
101.49385	2753.1758
102.9877	2721.373
104.48154	2753.4126
105.9754	2779.4578
107.46925	2743.8491
108.9631	2681.2815
110.45694	2707.0669
111.95079	2681.7266
113.44464	2636.1077
114.93849	2624.5598
116.43233	2697.9519
117.92619	2697.1384
119.42004	2707.8013
120.91389	2734.5032
122.40773	2737.3176
123.90158	2673.5552
125.39543	2545.7561
126.88928	2608.0735
128.38313	2585.4065
129.87698	2575.3257
131.37082	2624.3994
132.86467	2638.9092
134.35852	2617.7241
135.85237	2579.3997
137.34622	2601.3491
138.84007	2657.2925
140.33392	2674.4778
141.82777	2699.7568
143.32161	2683.093
144.81546	2720.2947
146.30931	2733.2241
147.80316	2682.3945
149.29701	2694.6357
150.79086	2724.3027
152.28471	2716.1833
153.77856	2689.0073
155.27242	2666.4834
156.76625	2671.6191
158.2601	2721.4495
159.75395	2667.301
161.2478	2658.3743
162.74165	2683.873
164.2355	2696.4907
165.72935	2676.8699
167.22321	2733.0447
168.71704	2705.8545
170.21089	2721.6895
171.70474	2764.1433
173.19859	2703.0557
174.69244	2748.8823
176.18629	2798.2224
177.68015	2804.7332
179.174	2787.3928
180.66783	2789.0984
182.16168	2861.2515
183.65553	2851.3931
185.14938	2827.9631
186.64323	2818.4124
188.13708	2827.1877
189.63094	2842.874
191.12479	2878.1245
192.61862	2952.3198
194.11247	2880.7324
195.60632	2821.6143
197.10017	2873.6121
198.59402	2847.3284
200.08788	2850.2412
201.58173	2870.5618
203.07558	2850.334
204.56943	2827.6157
206.06326	2864.4329
207.55711	2824.9685
209.05096	2821
210.54482	2873.105
212.03867	2917.4409
213.53252	2894.5354
215.02637	2786.8811
216.52022	2875.7627
218.01405	2857.7288
219.5079	2807.3511
221.00175	2791.4338
222.49561	2828.7517
223.98946	2815.5737
225.48331	2844.1189
226.97716	2806.2549
228.47101	2776.1331
229.96484	2795.0747
231.45869	2845.0833
232.95255	2764.2896
234.4464	2721.4695
235.94025	2699.0405
237.4341	2700.8198
238.92795	2728.7107
240.4218	2773.03
241.91563	2712.7886
243.40948	2758.1733
244.90334	2798.5513
246.39719	2794.989
247.89104	2767.6047
249.38489	2808.8982
250.87874	2789.1204
252.37259	2775.8232
253.86644	2768.2715
255.36028	2763.3169
256.85413	2766.4946
258.34799	2824.3628
259.84183	2728.7212
261.33566	2730.4229
262.82953	2790.7539
264.32336	2826.7148
265.81723	2771.5249
267.31107	2728.4961
268.80493	2722.2788
270.29877	2771.916
271.79263	2807.7302
273.28647	2792.6699
274.7803	2768.7847
276.27417	2789.4922
277.76801	2819.8049
279.26187	2807.7712
280.75571	2777.0837
282.24957	2756.4707
283.74341	2730.1096
285.23724	2849.5012
286.73111	2795.5671
288.22495	2752.0693
289.71881	2767.4185
291.21265	2813.7332
292.70651	2851.9009
294.20035	2796.5789
295.69421	2747.4224
297.18805	2684.2161
298.68188	2649.4707
300.17575	2689.658
301.66959	2727.033
303.16345	2655.1077
304.65729	2624.5166
306.15115	2635.0098
307.64499	2625.8987
309.13885	2542.8394
310.63269	2503.8103
312.12653	2542.6687
313.62039	2594.8167
315.11423	2592.2869
316.60809	2545.9241
318.10193	2526.041
319.59579	2568.4324
321.08963	2499.5835
322.58347	2386.6021
324.07733	2316.8813
325.57117	2318.48
327.06503	2352.2361
328.55887	2336.4097
330.05273	2371.3862
331.54657	2339.2644
333.04044	2316.6392
334.53427	2321.8418
336.02811	2304.9858
337.52197	2286.6423
339.01581	2212.1104
340.50967	2207.3931
342.00351	2211.0222
343.49738	2184.6157
344.99121	2145.6169
346.48505	2159.8049
347.97891	2130.4214
349.47275	2130.5894
350.96661	2123.5359
352.46045	2114.8923
353.95432	2126.0134
355.44815	2022.4247
356.94202	2059.989
358.43585	2035.0955
359.92969	2015.0245
361.42355	2045.7635
362.91739	2093.5969
364.41125	1971.5104
365.90509	2029.9254
367.39896	2083.4397
368.89279	2072.9224
370.38666	2035.6984
371.88049	2029.1814
373.37433	1994.0266
374.86819	1984.0599
376.36203	2013.8523
377.8559	1989.5635
379.34973	1956.7269
380.8436	1977.3723
382.33743	1969.0049
383.83127	1975.7089
385.32513	1970.2327
386.81897	1955.1555
388.31284	1942.233
389.80667	1949.7452
391.30054	1993.0148
392.79437	1938.4929
394.28824	1920.0841
395.78207	1928.604
397.27591	1939.7754
398.76978	1945.541
400.26361	1957.4738
401.75748	1912.9739
403.25131	1908
404.74518	1869.3367
406.23901	1894.8026
407.73288	1949.5093
409.22672	1895.7013
410.72055	1830.071
412.21442	1868.576
413.70825	1892.5831
415.20212	1892.4801
416.69595	1865.3416
418.18982	1838.9044
419.68365	1921.3467
421.17749	1852.636
422.67136	1897.9364
424.16519	1881.358
425.65906	1871.7585
427.15289	1925.1604
428.64676	1914.3595
430.14059	1921.1051
431.63446	1897.1586
433.1283	1949.8973
434.62213	1973.9656
436.116	1921.7786
437.60983	1870.6395
439.1037	1949.8835
440.59753	1917.1399
442.0914	1898.1511
443.58524	1934.8942
445.07907	1937.7649
446.57294	1851.4108
448.06677	1880.0077
449.56064	1989.0109
451.05447	1899.2506
452.54834	1887.1898
454.04218	1890.3494
455.53604	1849.1575
457.02988	1854.5992
458.52371	1872.3407
460.01758	1824.9218
461.51141	1812.4489
463.00528	1816.7448
464.49911	1817.8778
465.99298	1812.701
467.48682	1811.0096
468.98068	1849.6818
470.47452	1815.0548
471.96835	1823.7705
473.46222	1848.7605
474.95605	1827.0891
476.44992	1752.339
477.94376	1790.4363
479.43762	1833.1919
480.93146	1804.9841
482.42529	1755.9143
483.91916	1754.1212
485.41299	1808.8347
486.90686	1791.886
488.4007	1774.9147
489.89456	1798.682
491.3884	1775.3087
492.88226	1721.4532
494.3761	1716.6715
495.86993	1812.7126
497.3638	1757.5668
498.85764	1720.6266
500.3515	1689.4762
501.84534	1700.661
503.3392	1692.8066
504.83304	1622.9443
506.3269	1591.14
507.82074	1634.4587
509.31458	1602.1721
510.80844	1620.9509
512.30231	1609.4084
513.79614	1565.8297
515.28998	1563.714
516.78381	1567.97
518.27771	1585.7522
519.77155	1599.4404
521.26538	1616.0403
522.75922	1598.8969
524.25305	1565.7427
525.74695	1589.8143
527.24078	1596.6316
528.73462	1599.416
530.22845	1611.1788
531.72229	1581.8394
533.21619	1518.7002
534.71002	1472.1504
536.20386	1489.2444
537.69769	1467.0886
539.19159	1498.2338
540.68542	1497.3525
542.17926	1479.4961
543.6731	1497.5826
545.16693	1562.9117
546.66083	1579.397
548.15466	1566.6
549.6485	1533.6057
551.14233	1533.2321
552.63623	1525.4111
554.13007	1515.749
555.6239	1531.0226
557.11774	1520.448
558.61157	1496.5043
560.10547	1506.1263
561.5993	1499.3135
563.09314	1514.7524
564.58698	1536.1343
566.08087	1508.8032
567.57471	1474.0488
569.06854	1480.8976
570.56238	1491.3392
572.05621	1506.4957
573.55011	1501.2145
575.04395	1494.7576
576.53778	1520.5548
578.03162	1499.9771
579.52551	1458.8369
581.01935	1472.0133
582.51318	1519.4301
584.00702	1537.4318
585.50085	1513.7035
586.99475	1491.8494
588.48859	1484.965
589.98242	1467.8036
591.47626	1457.8198
592.97009	1482.6644
594.46399	1486.9308
595.95782	1483.5359
597.45166	1521.0162
598.9455	1492.8018
600.43939	1475.6212
601.93323	1481.0095
603.42706	1422.3151
604.9209	1408.4978
606.41473	1434.8845
607.90863	1424.1387
609.40247	1483.6931
610.8963	1440.6919
612.39014	1476.0498
613.88403	1491.8201
615.37787	1500.4653
616.8717	1502.1425
618.36554	1499.4242
619.85938	1543.4156
621.35327	1443.5356
622.84711	1514.6559
624.34094	1501.1021
625.83478	1482.4515
627.32867	1487.7732
628.82251	1502.4672
630.31635	1537.1161
631.81018	1461.2601
633.30402	1513.7727
634.79791	1538.6353
636.29175	1537.1393
637.78558	1531.3909
639.27942	1527.6892
640.77332	1516.63
642.26715	1528.7119
643.76099	1529
645.25482	1545.235
646.74866	1561.1088
648.24255	1560.2084
649.73639	1540.2131
651.23022	1516.3583
652.72406	1513.8545
654.21796	1544.099
655.71179	1557.0341
657.20563	1558.146
658.69946	1564.7278
660.1933	1554.5729
661.68719	1520.425
663.18103	1530.2922
664.67487	1622.8616
666.1687	1557.9027
667.66254	1559.8761
669.15643	1577.1012
670.65027	1581.5653
672.1441	1586.4208
673.63794	1593.8635
675.13184	1499.1865
676.62567	1542.5508
678.11951	1559.3264
679.61334	1533.9999
681.10718	1538.5432
682.60107	1570.0656
684.09491	1581.4344
685.58875	1584.6647
687.08258	1556.9117
688.57648	1588.1156
690.07031	1528.4741
691.56415	1499.2615
693.05798	1551.0232
694.55182	1609.8021
696.04572	1578.6282
697.53955	1566.401
699.03339	1635.8746
700.52722	1614.8199
702.02112	1604.3767
703.51495	1603.9999
705.00879	1624.6469
706.50262	1637.6335
707.99646	1569.7726
709.49036	1654.2056
710.98419	1669.6116
712.47803	1664.1753
713.97186	1681.9353
715.46576	1693.3878
716.95959	1687.3898
718.45343	1685.1588
719.94727	1690.8894
721.4411	1703.0773
722.935	1703.1941
724.42883	1759.1797
725.92267	1760.2202
727.4165	1722.6134
728.91034	1699.7083
730.40424	1707.3666
731.89807	1749.0022
733.39191	1724.5944
734.88574	1755.5459
736.37964	1744.123
737.87347	1795.4971
739.36731	1816.9718
740.86115	1762.6459
742.35498	1765.3452
743.84888	1802.5081
745.34271	1777.1643
746.83655	1809.9099
748.33038	1790.3784
749.82428	1761.7429
751.31812	1787.2448
752.81195	1807.8367
754.30579	1710.4288
755.79962	1764.766
757.29352	1741.1665
758.78735	1734.2111
760.28119	1795.0468
761.77502	1781.2133
763.26892	1748.3237
764.76276	1755.1591
766.25659	1713.887
767.75043	1777.3228
769.24426	1716.0591
770.73816	1740.7277
772.23199	1729.9586
773.72583	1748.3064
775.21967	1759.8451
776.71356	1707.12
778.2074	1648.0723
779.70123	1720.6383
781.19507	1748.715
782.6889	1733.4036
784.1828	1755.3744
785.67664	1770
787.17047	1754.9359
788.66431	1752.9435
790.15814	1795.5339
791.65204	1757.1627
793.14587	1760.677
794.63971	1799.2566
796.13354	1799.5414
797.62744	1770.5979
799.12128	1793.937
800.61511	1855.9393
802.10895	1857.3367
803.60278	1804.462
805.09668	1760.4751
806.59052	1811.9723
808.08435	1849.252
809.57819	1814.0328
811.07208	1801.7238
812.56592	1859.0055
814.05975	1912.0204
815.55359	1876.6282
817.04742	1913.6246
818.54132	1914
820.03516	1974.2612
821.52899	1943.2325
823.02283	1923.8051
824.51672	1919.4958
826.01056	1905.9559
827.50439	1935.0487
828.99823	1991.5659
830.49207	1961.5717
831.98596	1933.9922
833.4798	2005.879
834.97363	2050.1494
836.46747	2060.1787
837.96136	2061.3088
839.4552	2065.6563
840.94904	2101.4375
842.44287	2113.8044
843.93671	2137.4783
845.4306	2154.5579
846.92444	2120.1411
848.41827	2128.7383
849.91211	2157
851.40601	2135.0088
852.89984	2079.6101
854.39368	2075.2732
855.88751	2109.7764
857.38135	2074.7478
858.87524	2099.0764
860.36908	2116.1858
861.86292	2067.7776
863.35675	2026.2712
864.85059	2032.73
866.34448	1987.9387
867.83832	2006.2582
869.33215	2015.1183
870.82599	1967.3213
872.31989	1946.7878
873.81372	1987.5226
875.30756	1938.2092
876.80139	1870.9738
878.29523	1915.9061
879.78912	1866.5198
881.28296	1848.1167
882.77679	1867.6384
884.27063	1814.5441
885.76453	1776.2552
887.25836	1734.3779
888.7522	1722.4517
890.24603	1753.6406
891.73987	1761.1304
893.23376	1683.5635
894.7276	1736.8748
896.22144	1722.8141
897.71527	1721.7764
899.20917	1660.0996
900.703	1673.9333
902.19684	1686.0234
903.69067	1653.3325
905.18451	1660.502
906.67841	1698.6488
908.17224	1657.1554
909.66608	1694.5372
911.15991	1699
912.65381	1667.985
914.14764	1656.3922
915.64148	1681.8239
917.13531	1719.764
918.62915	1740.2382
920.12305	1748.2433
921.61688	1796.2236
923.11072	1764.1355
924.60455	1779.5015
926.09839	1746.3684
927.59229	1823.66
929.08612	1874.5696
930.57996	1854.8959
932.07379	1858.8916
933.56769	1889
935.06152	1886.3242
936.55536	1839.9038
938.04919	1905.7152
939.54303	1839.3019
941.03693	1849.3781
942.53076	1903.0887
944.0246	1918.6335
945.51843	1915.6959
947.01233	1936.1553
948.50616	1881.2163
950	1845.4551
951.49384	1862.6772
952.98767	1838.5363
954.48157	1823.5902
955.9754	1775.0762
957.46924	1739.608
958.96307	1713.9108
960.45697	1654.7045
961.95081	1607.9003
963.44464	1610.9575
964.93848	1571.5536
966.43231	1534.6156
967.92621	1519.9186
969.42004	1499.3207
970.91388	1478.4407
972.40771	1457.9567
973.90161	1441.0688
975.39545	1413.8174
976.88928	1336.7006
978.38312	1379.4702
979.87695	1343.547
981.37085	1358.5984
982.86469	1311.4034
984.35852	1280.9197
985.85236	1252.3445
987.34619	1203.4868
988.84009	1174.8126
990.33392	1190.8616
991.82776	1152.4347
993.32159	1138.0602
994.81549	1133.5209
996.30933	1187.8942
997.80316	1168.6561
999.297	1121.9039
1000.7908	1083.1847
1002.2847	1059.2944
1003.7786	1059.0043
1005.2724	1077.7377
1006.7662	1055.0441
1008.2601	1046.0452
1009.754	1045.1034
1011.2478	1070.5306
1012.7416	1082.5875
1014.2355	1074.2062
1015.7294	1035.4138
1017.2232	1026.1521
1018.717	1067.8185
1020.2109	1083.0502
1021.7048	1060.0924
1023.1986	1027.9231
1024.6924	1021.612
1026.1863	1062.5782
1027.6802	1085.6454
1029.174	1104.6678
1030.6678	1074.7573
1032.1617	1080.535
1033.6555	1104.29
1035.1494	1051.3552
1036.6432	1079.5238
1038.1371	1064.8518
1039.631	1083.8373
1041.1248	1070.5674
1042.6187	1071.0138
1044.1124	1085.8185
1045.6063	1097.5021
1047.1002	1092.1245
1048.594	1074.1969
1050.0879	1067.3657
1051.5817	1091.2839
1053.0756	1115.9404
1054.5695	1032.6158
1056.0632	1064.3682
1057.5571	1096.177
1059.051	1106.5559
1060.5448	1086.3885
1062.0387	1109.63
1063.5325	1106.5112
1065.0264	1069.7594
1066.5203	1089.8428
1068.014	1077.0016
1069.5079	1061.8843
1071.0017	1091.8271
1072.4956	1072.0728
1073.9895	1095.506
1075.4833	1109.1864
1076.9772	1098.9023
1078.4709	1109.1317
1079.9648	1109.0616
1081.4587	1079.7594
1082.9525	1065.8539
1084.4464	1042.4191
1085.9402	1088.3524
1087.4341	1075.6256
1088.928	1101.7992
1090.4218	1082.7863
1091.9156	1032.954
1093.4095	1033.7526
1094.9033	1045.9868
1096.3972	1022.8958
1097.891	1005.6331
1099.3849	1033.405
1100.8788	1042.7698
1102.3726	1068.9615
1103.8665	1035.2645
1105.3602	1021.726
1106.8541	1027.0895
1108.348	1042.9778
1109.8418	1069.1606
1111.3357	1088.7972
1112.8295	1075.0118
1114.3234	1062.16
1115.8173	1067.1166
1117.311	1012.7256
1118.8049	1028.1504
1120.2988	1051.9005
1121.7926	1062.9043
1123.2865	1007.32
1124.7803	1036.8545
1126.2742	1056.5364
1127.7681	1047.7667
1129.2618	1045.175
1130.7557	1058.6042
1132.2495	1065.6726
1133.7434	1058.4342
1135.2373	1053.3186
1136.7311	1010.2628
1138.225	1035.8629
1139.7188	1051.8724
1141.2126	1048.4733
1142.7065	1066.0149
1144.2003	1093.8353
1145.6942	1101.7174
1147.188	1093.0444
1148.6819	1103.8485
1150.1758	1128.4796
1151.6696	1126.5114
1153.1635	1159.295
1154.6573	1113.3208
1156.1511	1063.8489
1157.645	1139.5781
1159.1388	1117.6439
1160.6327	1095.4423
1162.1266	1115.834
1163.6204	1110.7029
1165.1143	1106.8331
1166.608	1121.3285
1168.1019	1095.6027
1169.5958	1063.8466
1171.0896	1125.9891
1172.5835	1099.8401
1174.0773	1166.0085
1175.5712	1128.6746
1177.0651	1140.5099
1178.5588	1141.427
1180.0527	1120.3484
1181.5466	1113.4248
1183.0404	1108.0214
1184.5343	1115.6506
1186.0281	1152.3547
1187.522	1164.4158
1189.0159	1125.5313
1190.5096	1066.5656
1192.0035	1061.0465
1193.4973	1077.4403
1194.9912	1089.8364
1196.4851	1041.4293
1197.9789	1030.4045
1199.4728	1075.3788
1200.9666	1068.7264
1202.4604	1042.6035
1203.9543	1032.9122
1205.4481	1009.5128
1206.942	1043.736
1208.4359	1089.5421
1209.9297	1063.0543
1211.4236	1009.5869
1212.9174	1074.2843
1214.4113	1054.9718
1215.9052	1060.1237
1217.3989	1083.2816
1218.8928	1065.9221
1220.3866	1015.2607
1221.8805	1008.0756
1223.3744	1035.8424
1224.8682	1041.9271
1226.3621	1064.9269
1227.8558	1053.0403
1229.3497	1025.9196
1230.8436	1008.3448
1232.3374	1002.5641
1233.8313	1026.9342
1235.3251	994.92688
1236.819	1038.9438
1238.3129	1055.8898
1239.8066	1033.4824
1241.3005	1012.5753
1242.7944	1010.7775
1244.2882	1037.4478
1245.7821	1060.2822
1247.2759	1022.1856
1248.7698	1076.0302
1250.2637	995.96478
1251.7574	994.11023
1253.2513	1064.6508
1254.7451	1047.0092
1256.239	1041.4548
1257.7329	1057.7074
1259.2267	1070.0745
1260.7206	1081.1638
1262.2144	1081.5449
1263.7083	1067.9631
1265.2021	1050.949
1266.6959	1053.2543
1268.1898	1142.7732
1269.6837	1130.064
1271.1775	1064.035
1272.6714	1066.8232
1274.1652	1117.4983
1275.6591	1114.5946
1277.153	1120.7637
1278.6467	1105.5092
1280.1406	1075.3301
1281.6344	1095.9026
1283.1283	1128
1284.6222	1126.4714
1286.116	1106.7847
1287.6099	1080.7109
1289.1036	1115.5989
1290.5975	1109.3193
1292.0914	1112.2654
1293.5852	1118.7866
1295.0791	1117.1973
1296.5729	1110.3333
1298.0668	1127.3704
1299.5607	1110.6731
1301.0544	1072.6434
1302.5483	1083.0121
1304.0422	1105.9821
1305.536	1087.8414
1307.0299	1069.7029
1308.5237	1101.5677
1310.0176	1141
1311.5115	1137.0927
1313.0052	1117.193
1314.4991	1118.6359
1315.9929	1107.4274
1317.4868	1072.8153
1318.9807	1080.6772
1320.4745	1032.2719
1321.9684	1030.3619
1323.4622	1062.1617
1324.9561	1092.491
1326.45	1098.3967
1327.9437	1074.3221
1329.4376	1069.2482
1330.9315	1079.0825
1332.4253	1048.1311
1333.9192	1072.1143
1335.413	1023.2452
1336.9069	1038.2671
1338.4008	1027.0166
1339.8945	1068.1479
1341.3884	1057.9211
1342.8822	1094.8706
1344.3761	1031.5299
1345.87	1051.4821
1347.3638	1048.9689
1348.8577	1013.704
1350.3514	983.05261
1351.8453	1003.4861
1353.3392	1043.4973
1354.833	1046.0287
1356.3269	1050.6111
1357.8207	1009.9093
1359.3146	1052.8751
1360.8085	1033.6113
1362.3022	1054.8733
1363.7961	1041.7256
1365.29	1065.8794
1366.7838	1000.2628
1368.2777	1035.1979
1369.7715	1062.0487
1371.2654	1020.2372
1372.7593	1046.9204
1374.2531	1055.3939
1375.7469	1020.6182
1377.2407	1037.496
1378.7346	1076.5824
1380.2285	1068.3822
1381.7223	1070.6823
1383.2162	1113.1207
1384.71	1075.7859
1386.2039	1068.8278
1387.6978	1095.7954
1389.1915	1062.8274
1390.6854	1093.0708
1392.1793	1100.3328
1393.6731	1073.0452
1395.167	1078.6825
1396.6608	1089.9683
1398.1547	1089.9663
1399.6486	1127.6183
1401.1423	1137.2751
1402.6362	1113.5615
1404.13	1092.7228
1405.6239	1078.6201
1407.1178	1115.6418
1408.6116	1107.2383
1410.1055	1081.1566
1411.5992	1044.8757
1413.0931	1124.0681
1414.587	1052.2761
1416.0808	1058.5958
1417.5747	1074.9905
1419.0685	1115.347
1420.5624	1084.7861
1422.0563	1099.4242
1423.55	1127.1741
1425.0439	1158.9142
1426.5378	1110.7473
1428.0316	1072.2367
1429.5255	1119.6819
1431.0193	1119.3546
1432.5132	1070.0189
1434.0071	1081.0398
1435.5009	1045.5201
1436.9948	1087.1323
1438.4885	1129.4684
1439.9824	1129.3226
1441.4763	1046.5161
1442.9701	1057.903
1444.464	1052.3547
1445.9578	1045.7697
1447.4517	1018.1401
1448.9456	1037.4274
1450.4393	1022.6152
1451.9332	1036.9911
1453.4271	1042.5394
1454.9209	1045.2861
1456.4148	1061.9039
1457.9086	1067.1422
1459.4025	1048.2756
1460.8964	1028.4939
1462.3901	1019.9351
1463.884	1009.6246
1465.3778	1004.8318
1466.8717	1020.0833
1468.3656	1013.4055
1469.8594	1044.2169
1471.3533	1038.5942
1472.847	1069.002
1474.3409	1069.9542
1475.8348	1002.0031
1477.3286	1061.1638
1478.8225	1069.5638
1480.3163	1056.76
1481.8102	1063.772
1483.3041	1073.371
1484.7979	1051.6339
1486.2917	1034.108
1487.7856	1063.9308
1489.2794	1073.5277
1490.7733	1031.9908
1492.2671	1052.5146
1493.761	1095.2539
1495.2549	1045.7212
1496.7487	1059.9606
1498.2426	1049.6417
1499.7363	1091.7665
1501.2302	1071.3737
1502.7241	1077.4398
1504.2179	1116.1462
1505.7118	1093.2089
1507.2056	1097.7417
1508.6995	1131.4634
1510.1934	1119.5074
1511.6871	1077.7802
1513.181	1104.588
1514.6749	1142.0558
1516.1687	1130.6588
1517.6626	1164.8934
1519.1564	1134.7546
1520.6503	1107.4114
1522.1442	1148.2432
1523.6379	1180.4766
1525.1318	1182.7399
1526.6256	1163.3473
1528.1195	1127.5365
1529.6134	1157.4453
1531.1072	1211.121
1532.6011	1142.8246
1534.0948	1131.5681
1535.5887	1172.8531
1537.0826	1170.0737
1538.5764	1159.1201
1540.0703	1229.9958
1541.5641	1194.4878
1543.058	1229.9735
1544.5519	1232.9078
1546.0457	1186.9901
1547.5396	1170.0577
1549.0334	1183.0093
1550.5272	1186.2491
1552.0211	1197.4026
1553.5149	1220.1987
1555.0088	1212.4646
1556.5027	1192.8378
1557.9965	1178.16
1559.4904	1184.0109
1560.9841	1181.4305
1562.478	1150.8975
1563.9719	1142.4799
1565.4657	1150.4202
1566.9596	1143.7274
1568.4534	1161.6952
1569.9473	1169.0507
1571.4412	1179.0222
1572.9349	1203.9497
1574.4288	1197.5103
1575.9227	1142.0054
1577.4165	1158.0753
1578.9104	1170.2798
1580.4042	1175.941
1581.8981	1171.1141
1583.392	1159.7013
1584.8857	1158.0929
1586.3796	1140.5392
1587.8734	1151.4083
1589.3673	1115.4078
1590.8612	1129.8541
1592.355	1139.9429
1593.8489	1119.9282
1595.3427	1098.9679
1596.8365	1136.8226
1598.3304	1127.0675
1599.8242	1111.4052
1601.3181	1128.2676
1602.812	1146.563
1604.3058	1144.1542
1605.7997	1117.0715
1607.2935	1123.2089
1608.7874	1149.5011
1610.2813	1127.5345
1611.775	1113.3875
1613.2689	1092.0432
1614.7627	1086.9214
1616.2566	1128.5696
1617.7505	1079.6885
1619.2443	1069.3112
1620.7382	1105.7126
1622.2319	1046.3772
1623.7258	1034.0106
1625.2197	1074.5708
1626.7135	1009.3099
1628.2074	1058.8094
1629.7012	1062.8419
1631.1951	1039.1536
1632.689	1036.1119
1634.1827	1016.2347
1635.6766	1019.6461
1637.1705	1011.3721
1638.6643	1015.1927
1640.1582	1011.0323
1641.652	988.17725
1643.1459	1057.3092
1644.6398	1044.9485
1646.1335	1031.1649
1647.6274	1023.6235
1649.1212	1004.5429
1650.6151	992.06989
1652.109	1020.1548
1653.6028	1012.4217
1655.0967	998.19098
1656.5905	1013.5833
1658.0844	1000.5813
1659.5782	995.44397
1661.072	985.40369
1662.5659	999.24323
1664.0598	1014.1426
1665.5536	1013.8701
1667.0475	1010.122
1668.5413	1003.7976
1670.0352	992.29102
1671.5291	978.71436
1673.0228	943.55426
1674.5167	991.66742
1676.0105	983.16986
1677.5044	993.39215
1678.9983	935.53088
1680.4921	957.49384
1681.986	965.68518
1683.4797	957.1084
1684.9736	934.71265
1686.4675	953.11395
1687.9613	959.43225
1689.4552	941.41931
1690.949	929.78027
1692.4429	955.57983
1693.9368	961.73651
1695.4305	926.78986
1696.9244	938.14178
1698.4183	943.10822
1699.9121	941.44739
1701.406	929.15393
1702.8998	908.97009
1704.3937	925.60718
1705.8876	949.09229
1707.3813	947.03052
1708.8752	939.52014
1710.369	928.92407
1711.8629	924.2594
1713.3568	914.51282
1714.8506	913.71631
1716.3445	895.48126
1717.8383	910.67566
1719.3322	915.42322
1720.826	906.56531
1722.3198	913.13416
1723.8137	903.6748
1725.3076	907.82666
1726.8014	907.10419
1728.2953	930.67358
1729.7891	927.0896
1731.283	915.89563
1732.7769	913.92194
1734.2706	925.09406
1735.7645	929.65387
1737.2583	938.21619
1738.7522	932.50067
1740.2461	915.14038
1741.7399	904.48895
1743.2338	899.41022
1744.7275	906.52026
1746.2214	928.6012
1747.7153	931.59521
1749.2091	914.04681
1750.703	944.13666
1752.1968	928.46033
1753.6907	955.5047
1755.1846	950.43311
1756.6783	921.02875
1758.1722	912.47308
1759.6661	929.64362
1761.1599	952.50604
1762.6538	963.32422
1764.1476	953.716
1765.6415	966.23462
1767.1354	947.58319
1768.6292	949.79004
1770.123	972.29828
1771.6168	925.82635
1773.1107	918.99719
1774.6046	912.12347
1776.0984	937.04486
1777.5923	948.63983
1779.0861	971.07922
1780.58	965.02026
1782.0739	903.31592
1783.5676	938.63684
1785.0615	933.2912
1786.5554	958.2218
1788.0492	963.01563
1789.5431	954.8374
1791.0369	919.17889
1792.5308	919.63818
1794.0247	925.20654
1795.5184	938.33264
1797.0123	948.81354
1798.5061	933.22498
1800	973.2168
1801.4939	930.10535
1802.9877	891.67188
1804.4816	870.505
1805.9753	887.61157
1807.4692	895.34137
1808.9631	918.27936
1810.4569	886.43066
1811.9508	888.14447
1813.4446	933.30341
1814.9385	896.06299
1816.4324	910.83356
1817.9261	863.39008
1819.42	841.82416
1820.9139	909.80292
1822.4077	903.60291
1823.9016	918.52551
1825.3954	891.9436
1826.8893	867.36176
1828.3832	870.76996
1829.877	903.92853
1831.3708	909.6015
1832.8646	886.59174
1834.3585	883.50757
1835.8524	897.32172
1837.3462	922.36029
1838.8401	909.97662
1840.3339	893.90417
1841.8278	872.27637
1843.3217	863.90753
1844.8154	871.33051
1846.3093	890.06482
1847.8032	896.54449
1849.297	889.60382
1850.7909	915.70752
1852.2847	916.07117
1853.7786	867.4826
1855.2725	856.95129
1856.7662	876.47919
1858.2601	886.92865
1859.7539	872.30841
1861.2478	858.69739
1862.7417	874.2652
1864.2355	884.06854
1865.7294	900.44574
1867.2231	892.18219
1868.717	868.78265
1870.2109	852.13733
1871.7047	877.90271
1873.1986	914.42297
1874.6924	917.0929
1876.1863	914.6084
1877.6802	887.66913
1879.174	868.97284
1880.6678	874.71442
1882.1617	860.78735
1883.6555	862.38208
1885.1494	883.48761
1886.6432	905.33099
1888.1371	913.56506
1889.631	915.22137
1891.1248	932.97205
1892.6187	950.66327
1894.1124	922.17291
1895.6063	911.06006
1897.1002	894.65894
1898.594	880.52899
1900.0879	909.07135
1901.5817	907.8136
1903.0756	902.37451
1904.5695	894.6369
1906.0632	905.87244
1907.5571	894.02246
1909.051	916.90247
1910.5448	875.35303
1912.0387	865.05493
1913.5325	891.86133
1915.0264	890.76111
1916.5203	898.48517
1918.014	904.01733
1919.5079	897.92401
1921.0017	906.02142
1922.4956	894.20367
1923.9895	886.78711
1925.4833	921.25134
1926.9772	910.28424
1928.4709	901.58954
1929.9648	885.97205
1931.4587	871.50922
1932.9525	887.15515
1934.4464	869.87421
1935.9402	863.00964
1937.4341	874.56915
1938.928	869.10675
1940.4218	854.54205
1941.9156	867.97583
1943.4095	877.05817
1944.9033	827.63483
1946.3972	846.99396
1947.891	863.4071
1949.3849	843.10876
1950.8788	829.05743
1952.3726	852.22913
1953.8665	858.32025
1955.3602	852.07037
1956.8541	845.08722
1958.348	835.32697
1959.8418	839.53033
1961.3357	819.38818
1962.8295	812.68274
1964.3234	844.80328
1965.8173	842.87842
1967.311	833.76965
1968.8049	846.61975
1970.2988	820.05499
1971.7926	837.04456
1973.2865	839.64258
1974.7803	814.13763
1976.2742	814.90375
1977.7681	837.04968
1979.2618	840.2215
1980.7557	815.97363
1982.2495	829.70117
1983.7434	815.52185
1985.2373	800.54803
1986.7311	792.29486
1988.225	809.34521
1989.7188	817.66199
1991.2126	799.04688
1992.7065	812.35382
1994.2003	809.40417
1995.6942	802.57831
1997.188	814.27594
1998.6819	827.80231
2000.1758	835.47076
2001.6696	816.56256
2003.1635	795.39056
2004.6573	808.18475
2006.1511	809.82617
2007.645	814.64209
2009.1388	852.02191
2010.6327	827.56866
2012.1266	848.02881
2013.6204	821.25775
2015.1143	825.58447
2016.608	831.42963
2018.1019	842.79877
2019.5958	886.03632
2021.0896	831.5354
2022.5835	877.88336
2024.0773	799.67163
2025.5712	851.37549
2027.0651	837.21814
2028.5588	868.93848
2030.0527	845.49774
2031.5466	872.40167
2033.0404	856.65906
2034.5343	890.22748
2036.0281	908.08069
2037.522	904.98956
2039.0159	868.11414
2040.5096	867.69354
2042.0035	851.47473
2043.4973	818.41925
2044.9912	866.62213
2046.4851	853.98816
2047.9789	880.47913
2049.4727	882.54388
2050.9666	896.09637
2052.4604	865.35742
2053.9543	869.87
2055.4482	870.45459
2056.9419	880.76111
2058.4358	905.18604
2059.9297	907.88959
2061.4236	911.12708
2062.9175	880.49329
2064.4111	854.39362
2065.905	859.12946
2067.3989	863.81427
2068.8928	846.19922
2070.3867	852.95361
2071.8804	844.78638
2073.3743	845.38177
2074.8682	845.58588
2076.3621	867.20789
2077.856	853.42542
2079.3499	871.37012
2080.8435	845.16571
2082.3374	829.48669
2083.8313	843.09741
2085.3252	806.53705
2086.8191	800.68542
2088.3127	793.25623
2089.8066	832.70087
2091.3005	877.36145
2092.7944	804.59259
2094.2883	814.82532
2095.782	803.06763
2097.2759	804.63416
2098.7698	845.12866
2100.2637	772.39063
2101.7576	801.41211
2103.2512	788.06909
2104.7451	796.5517
2106.239	782.76941
2107.7329	779.16479
2109.2268	783.49164
2110.7205	804.66827
2112.2144	807.71967
2113.7083	806.03351
2115.2021	822.05414
2116.696	801.19519
2118.1897	799.95795
2119.6836	798.58594
2121.1775	821.32257
2122.6714	797.37073
2124.1653	785.99811
2125.6589	793.41431
2127.1528	795.28033
2128.6467	792.54156
2130.1406	794.43274
2131.6345	795.45581
2133.1282	819.55365
2134.6221	846.15021
2136.116	798.30121
2137.6099	784.81409
2139.1038	831.30511
2140.5977	795.92761
2142.0913	806.52972
2143.5852	803.50458
2145.0791	775.39771
2146.573	795.72284
2148.0669	811.24677
2149.5605	776.39172
2151.0544	791.76819
2152.5483	788.40051
2154.0422	825.62415
2155.5361	818.03046
2157.0298	828.00128
2158.5237	794.48578
2160.0176	805.58405
2161.5115	842.245
2163.0054	839.05585
2164.499	781.84406
2165.9929	814.7934
2167.4868	839.79846
2168.9807	858.07074
2170.4746	824.80261
2171.9683	824.88733
2173.4622	799.48767
2174.9561	822.43488
2176.45	855.03522
2177.9438	849.48035
2179.4375	838.85071
2180.9314	843.20636
2182.4253	853.80328
2183.9192	839.06122
2185.4131	818.28839
2186.9067	829.61823
2188.4006	832.55634
2189.8945	841.09668
2191.3884	838.30872
2192.8823	853.98999
2194.376	916.36896
2195.8699	854.7832
2197.3638	868.1972
2198.8577	868.00299
2200.3516	860.82446
2201.8455	882.5592
2203.3391	864.98767
2204.833	870.04742
2206.3269	850.02838
2207.8208	842.37891
2209.3147	874.91553
2210.8083	890.77808
2212.3022	850.65332
2213.7961	879.66223
2215.29	879.80444
2216.7839	877.67206
2218.2776	866.54272
2219.7715	841.8468
2221.2654	838.05377
2222.7593	863.31171
2224.2532	892.18347
2225.7468	904.20398
2227.2407	853.35895
2228.7346	865.54553
2230.2285	850.08594
2231.7224	830.2782
2233.2161	834.35168
2234.71	852.08386
2236.2039	835.14325
2237.6978	859.40985
2239.1917	867.02448
2240.6853	822.33356
2242.1792	846.34949
2243.6731	837.65759
2245.167	814.01483
2246.6609	810.8551
2248.1545	820.29364
2249.6484	794.651
2251.1423	796.0274
2252.6362	826.97217
2254.1301	828.23907
2255.624	804.06598
2257.1177	790.65723
2258.6116	802.88867
2260.1055	766.17218
2261.5994	790.35223
2263.0933	816.76965
2264.5869	778.48254
2266.0808	792.80304
2267.5747	795.07697
2269.0686	784.3407
2270.5625	796.26849
2272.0562	756.5163
2273.55	819.58276
2275.0439	787.30518
2276.5378	801.30359
2278.0317	795.34253
2279.5254	804.04535
2281.0193	788.28717
2282.5132	806.93475
2284.0071	806.21204
2285.501	808.39703
2286.9946	788.93738
2288.4885	805.77771
2289.9824	807.00006
2291.4763	800.08759
2292.9702	782.91797
2294.4639	833.3479
2295.9578	829.49591
2297.4517	773.43829
2298.9456	779.24323
2300.4395	784.96509
2301.9331	816.3623
2303.427	758.37897
2304.9209	757.34515
2306.4148	744.01978
2307.9087	793.51953
2309.4023	782.13043
2310.8962	801.99237
2312.3901	773.9624
2313.884	754.49469
2315.3779	765.59845
2316.8718	775.63605
2318.3655	755.94977
2319.8594	738.31891
2321.3533	788.41193
2322.8472	765.25037
2324.3411	787.91376
2325.8347	766.65588
2327.3286	798.69281
2328.8225	790.06525
2330.3164	798.34387
2331.8103	809.59241
2333.304	839.5824
2334.7979	786.14374
2336.2917	777.67126
2337.7856	786.47845
2339.2795	764.97198
2340.7732	776.97485
2342.2671	806.52966
2343.761	804
2345.2549	783.94733
2346.7488	794.93372
2348.2424	793.27844
2349.7363	819.93079
2351.2302	835.69025
2352.7241	843.25952
2354.218	817.33411
2355.7117	806.72675
2357.2056	785.00433
2358.6995	836.44476
2360.1934	826.83923
2361.6873	852.89459
2363.1809	827.39014
2364.6748	817.25391
2366.1687	804.54425
2367.6626	804.12939
2369.1565	807.07074
2370.6501	834.14624
2372.144	834.70935
2373.6379	834.52625
2375.1318	839.35797
2376.6257	818.82751
2378.1196	786.84833
2379.6133	815.98993
2381.1072	867.90692
2382.6011	864.6286
2384.095	858.83374
2385.5889	841.35986
2387.0825	822.67535
2388.5764	830.07605
2390.0703	825.0788
2391.5642	809.93488
2393.0581	834.90338
2394.5518	819.10626
2396.0457	838.12567
2397.5396	861
2399.0334	808.33307
2400.5273	806.75342
2402.021	844.66376
2403.5149	852.90015
2405.0088	876.87878
2406.5027	851.24561
2407.9966	835.42786
2409.4902	831.84503
2410.9841	832.96118
2412.478	828.1001
2413.9719	843.60345
2415.4658	840.18451
2416.9595	851.42902
2418.4534	833.51794
2419.9473	838.97705
2421.4412	838.59424
2422.9351	863.86401
2424.4287	835.45313
2425.9226	843.70282
2427.4165	850.41498
2428.9104	813.78192
2430.4043	808.31134
2431.8979	827.50439
2433.3918	813.3371
2434.8857	819.96625
2436.3796	856.26483
2437.8735	810.88361
2439.3674	797.90906
2440.8611	844.51111
2442.355	835.64136
2443.8489	832.23315
2445.3428	850.61969
2446.8367	812.3703
2448.3303	821.362
2449.8242	839.34741
2451.3181	807.67102
2452.812	838.86609
2454.3059	824.39777
2455.7996	813.29504
2457.2935	810.80469
2458.7874	819.71869
2460.2813	818.49109
2461.7751	830.95251
2463.2688	821.75452
2464.7627	862.336
2466.2566	843.88086
2467.7505	805.5708
2469.2444	813.42236
2470.738	853.966
2472.2319	798.26904
2473.7258	787.81891
2475.2197	819.12518
2476.7136	856.46368
2478.2073	860.8418
2479.7012	820.48315
2481.1951	821.82977
2482.689	842.13824
2484.1829	820.30005
2485.6765	821.55304
2487.1704	856.5127
2488.6643	828.06085
2490.1582	833.62897
2491.6521	815.07965
2493.1458	830.79187
2494.6396	781.93335
2496.1335	826.14099
2497.6274	831
2499.1213	829.35297
2500.6152	809.20038
2502.1089	824.07788
2503.6028	817.7572
2505.0967	787.97803
2506.5906	811.31952
2508.0845	837.81012
2509.5781	873.4035
2511.072	835.42755
2512.5659	812.85797
2514.0598	821
2515.5537	813.03302
2517.0474	819.49652
2518.5413	840.48413
2520.0352	844.32355
2521.5291	862.83044
2523.0229	835.20013
2524.5166	809.90063
2526.0105	824.77191
2527.5044	815.68695
2528.9983	827.26257
2530.4922	836.7348
2531.9858	801.99036
2533.4797	803.02405
2534.9736	872.40192
2536.4675	858.17505
2537.9614	843.03253
2539.4551	859.42285
2540.949	866.36847
2542.4429	854.30322
2543.9368	811.67346
2545.4307	801.03516
2546.9243	854.01093
2548.4182	833.96741
2549.9121	811.13226
2551.406	846.02869
2552.8999	873.06696
2554.3936	833.84033
2555.8875	842.90192
2557.3813	835.97522
2558.8752	854.815
2560.3691	870.16925
2561.863	826.47351
2563.3567	868.88586
2564.8506	864.85345
2566.3445	866.61646
2567.8384	890.21564
2569.3323	823.13177
2570.8259	834.74078
2572.3198	852.8844
2573.8137	868.5069
2575.3076	905.48541
2576.8015	838.83124
2578.2952	882.89197
2579.7891	830.1272
2581.283	849.2251
2582.7769	859.65942
2584.2708	873.5741
2585.7644	888.82312
2587.2583	869.48944
2588.7522	880.24683
2590.2461	894.46265
2591.74	870.50922
2593.2336	865.46576
2594.7275	851.16919
2596.2214	859.1474
2597.7153	883.70386
2599.2092	839.34155
2600.7029	852.30615
2602.1968	854.96692
2603.6907	878.98724
2605.1846	876.16949
2606.6785	854.54578
2608.1721	859.20013
2609.666	905.12219
2611.1599	850.54053
2612.6538	853.41986
2614.1477	871.75037
2615.6414	896.32153
2617.1353	885.69617
2618.6292	880.82147
2620.123	877.86157
2621.6169	871.21527
2623.1108	873.48865
2624.6045	887.84546
2626.0984	873.07172
2627.5923	879.02722
2629.0862	864.73755
2630.5801	873.87439
2632.0737	861.43665
2633.5676	866.32715
2635.0615	871.90216
2636.5554	868.66187
2638.0493	866.8255
2639.543	864.65314
2641.0369	900.97791
2642.5308	868.95856
2644.0247	864.08649
2645.5186	876.91632
2647.0122	872.24249
2648.5061	879.03601
2650	910.77417
2651.4939	875.76917
2652.9878	819.31366
2654.4814	883.41864
2655.9753	872.45428
2657.4692	877.78815
2658.9631	856.06952
2660.457	890.00525
2661.9507	894.08893
2663.4446	886.28564
2664.9385	867.21259
2666.4324	873.77759
2667.9263	887.19556
2669.4199	874.25842
2670.9138	855.51007
2672.4077	873.74249
2673.9016	897.51764
2675.3955	881.315
2676.8892	871.78461
2678.3831	903.4541
2679.877	891.52429
2681.3708	883.83289
2682.8647	871.5672
2684.3586	901.78424
2685.8523	857.70441
2687.3462	913.96033
2688.8401	872.88489
2690.334	878.33936
2691.8279	872.84924
2693.3215	888.02252
2694.8154	882.18402
2696.3093	874.14618
2697.8032	899.35443
2699.2971	865.46637
2700.7908	889.02435
2702.2847	887.22961
2703.7786	881.17847
2705.2725	873.9978
2706.7664	887.23999
2708.26	880.30847
2709.7539	882.14691
2711.2478	871.86407
2712.7417	903.74402
2714.2356	901.96832
2715.7292	897.3642
2717.2231	901.60388
2718.717	873.00647
2720.2109	874.47626
2721.7048	884.513
2723.1985	899.01257
2724.6924	901.28192
2726.1863	886.21295
2727.6802	875.27045
2729.1741	870.06781
2730.6677	915.16577
2732.1616	896.56732
2733.6555	899.35211
2735.1494	897.16479
2736.6433	898.09833
2738.137	902.37384
2739.6309	857.00562
2741.1248	882.7052
2742.6187	890.78345
2744.1125	887.38177
2745.6064	893.60632
2747.1001	873.81519
2748.594	869.3869
2750.0879	890.37036
2751.5818	907.56519
2753.0757	865.82983
2754.5693	865.35687
2756.0632	903.39349
2757.5571	863.07056
2759.051	868.48969
2760.5449	884.70032
2762.0386	884.3009
2763.5325	893.901
2765.0264	879.47925
2766.5203	898.69513
2768.0142	892.42755
2769.5078	887.87573
2771.0017	878.0058
2772.4956	885.75824
2773.9895	896.18469
2775.4834	880.14343
2776.9771	887.49207
2778.4709	880.70361
2779.9648	893.17975
2781.4587	875.97662
2782.9526	878.14441
2784.4463	877.04266
2785.9402	878.1485
2787.4341	887.08447
2788.928	887.38007
2790.4219	896.81409
2791.9155	899.45819
2793.4094	877.23553
2794.9033	903.56146
2796.3972	871.26569
2797.8911	885.28644
2799.3848	905.77557
2800.8787	887.41846
2802.3726	862.66357
2803.8665	885.18304
2805.3604	893.36139
2806.8542	855.73169
2808.3479	870.82782
2809.8418	900.95703
2811.3357	875.21307
2812.8296	889.69708
2814.3235	898.7901
2815.8171	894.66614
2817.311	856.97485
2818.8049	881.01013
2820.2988	868.94141
2821.7927	873.96051
2823.2864	874.9234
2824.7803	863.85889
2826.2742	872.88983
2827.7681	871.61713
2829.262	870.2016
2830.7556	873.76038
2832.2495	886.8418
2833.7434	864.68634
2835.2373	879.5296
2836.7312	887.38849
2838.2249	846.10956
2839.7188	878.28967
2841.2126	863.22943
2842.7065	860.02057
2844.2004	880.53345
2845.6941	887.60223
2847.188	869.23816
2848.6819	882.74249
2850.1758	877.35168
2851.6697	876.72681
2853.1633	846.28772
2854.6572	844.26123
2856.1511	872.76862
2857.645	864.90515
2859.1389	862.92114
2860.6326	854.72656
2862.1265	864.37415
2863.6204	873.76227
2865.1143	876.43628
2866.6082	849.63129
2868.1021	882.06097
2869.5957	881.01794
2871.0896	885.21332
2872.5835	868.59406
2874.0774	877.3103
2875.5713	874.59052
2877.0649	905.04938
2878.5588	852.00574
2880.0527	858.92993
2881.5466	855.18445
2883.0405	878.08374
2884.5342	864.24799
2886.0281	883.59558
2887.522	865.9516
2889.0159	917.0127
2890.5098	876.38031
2892.0034	894.6272
2893.4973	882.37146
2894.9912	862.52271
2896.4851	882.61566
2897.979	869.62372
2899.4727	857.86481
2900.9666	846.43457
2902.4604	892.50348
2903.9543	880.93719
2905.4482	876.18262
2906.9419	876.33252
2908.4358	856.41595
2909.9297	874.38251
2911.4236	871.45215
2912.9175	844.18207
2914.4111	852.70258
2915.905	846.48535
2917.3989	872.12299
2918.8928	874.43378
2920.3867	834.87158
2921.8804	859.68158
2923.3743	898.26746
2924.8682	856.58325
2926.3621	860.53333
2927.856	869.06219
2929.3499	882.38379
2930.8435	841.11334
2932.3374	839.97418
2933.8313	861.44305
2935.3252	881.05688
2936.8191	862.73438
2938.3127	841.14746
2939.8066	859.91187
2941.3005	875.76678
2942.7944	836.66046
2944.2883	828.45099
2945.782	851.10931
2947.2759	844.8985
2948.7698	833.32214
2950.2637	855.53918
2951.7576	846.55109
2953.2512	846.90613
2954.7451	859.70349
2956.239	870.66901
2957.7329	849.43982
2959.2268	866.04565
2960.7205	876.55634
2962.2144	848.15076
2963.7083	839.18634
2965.2021	847.69586
2966.696	860.58984
2968.1897	853.97827
2969.6836	846.06689
2971.1775	858.53571
2972.6714	836.0766
2974.1653	857.8136
2975.6589	876.0116
2977.1528	854.50531
2978.6467	866.44708
2980.1406	895.24182
2981.6345	873.41675
2983.1282	874.84808
2984.6221	852.78839
2986.116	867.84375
2987.6099	916.47272
2989.1038	860.31573
2990.5977	852.55566
2992.0913	892.33527
2993.5852	877.56244
2995.0791	904.81165
2996.573	882.28796
2998.0669	932.53302
2999.5605	915.75745
3001.0544	893.5401
3002.5483	870.27142
3004.0422	890.50275
3005.5361	877.99756
3007.0298	858.28503
3008.5237	896.58008
3010.0176	894.10425
3011.5115	890.74426
3013.0054	868.80322
3014.499	868.67035
3015.9929	891.46729
3017.4868	856.82922
3018.9807	873.47485
3020.4746	873.41638
3021.9683	883.10718
3023.4622	859.75861
3024.9561	954.50317
3026.45	881.81317
3027.9438	881.81317
3029.4375	881.81317
3030.9314	897.63568
3032.4253	848.83618
3033.9192	866.60101
3035.4131	817.19934
3036.9067	856.49542
3038.4006	894.55377
3039.8945	886.55676
3041.3884	876.49786
3042.8823	876.82349
3044.376	843.98389
3045.8699	864.93115
3047.3638	892.12024
3048.8577	892.62079
3050.3516	877.08752
3051.8455	866.59839
3053.3391	842.21619
3054.833	876.85754
3056.3269	850.35474
3057.8208	868.43909
3059.3147	872.14966
3060.8083	928.83209
3062.3022	904.20123
3063.7961	843.78247
3065.29	861.61487
3066.7839	890.51904
3068.2776	880.56055
3069.7715	901.97589
3071.2654	879.74847
3072.7593	866.91748
3074.2532	875.64532
3075.7468	852.95392
3077.2407	872.62823
3078.7346	876.75085
3080.2285	892.45337
3081.7224	844.56189
3083.2161	816.25708
3084.71	849.45856
3086.2039	858.74994
3087.6978	855.71674
3089.1917	891.40277
3090.6853	858.0918
3092.1792	852.17828
3093.6731	846.57892
3095.167	867.68127
3096.6609	874.70044
3098.1545	901.87299
3099.6484	873.0144
3101.1423	865.63538
3102.6362	880.51086
3104.1301	847.09985
3105.624	828.94049
3107.1177	862.00616
3108.6116	857.82581
3110.1055	833.93652
3111.5994	869.08185
3113.0933	890.79077
3114.5869	856.7854
3116.0808	854.64752
3117.5747	835.32245
3119.0686	833.45825
3120.5625	866.89075
3122.0562	863.19757
3123.55	896.30066
3125.0439	865.28113
3126.5378	860.7276
3128.0317	866.3728
3129.5254	878.27106
3131.0193	883.55194
3132.5132	859.01654
3134.0071	888.43091
3135.501	885.78558
3136.9946	845.07715
3138.4885	837
3139.9824	837
3141.4763	852.40051
3142.9702	889.24463
3144.4639	873.48938
3145.9578	819.51678
3147.4517	839.81201
3148.9456	845.47333
3150.4395	882.49829
3151.9331	841.13794
3153.427	823.35321
3154.9209	874.73987
3156.4148	834.03149
3157.9087	881.05664
3159.4023	863.10236
3160.8962	836.37793
3162.3901	871.45697
3163.884	860.12073
3165.3779	858.0647
3166.8718	879.28564
3168.3655	867.98578
3169.8594	848.83704
3171.3533	892.03558
3172.8472	874.58484
3174.3411	831.39227
3175.8347	862.75732
3177.3286	892.14807
3178.8225	871.06549
3180.3164	852.67755
3181.8103	856.86835
3183.304	900.27319
3184.7979	874.58984
3186.2917	827.57117
3187.7856	856.3941
3189.2795	922.89642
3190.7732	828.18262
3192.2671	845.67413
3193.761	866.58734
3195.2549	894.0257
3196.7488	898.87286
3198.2424	855.25574
3199.7363	863.0025
3201.2302	893.10626
3202.7241	860.63733
3204.218	807.98755
3205.7117	854.39948
3207.2056	834.76154
3208.6995	865.84167
3210.1934	837.69275
3211.6873	825.67346
3213.1809	858.50848
3214.6748	805.19727
3216.1687	852.05444
3217.6626	837.03754
3219.1565	843.8526
3220.6501	845.97083
3222.144	881.46771
3223.6379	915.24402
3225.1318	855.48486
3226.6257	844.98096
3228.1196	865.2851
3229.6133	827.69781
3231.1072	864.91254
3232.6011	873.75482
3234.095	845.73907
3235.5889	845.81549
3237.0825	865.98022
3238.5764	825.15332
3240.0703	811.78876
3241.5642	827.8645
3243.0581	827.23376
3244.5518	875.28278
3246.0457	841.17621
3247.5396	861.88867
3249.0334	858.37854
3250.5273	822.67633
3252.021	848.28217
3253.5149	834.79614
3255.0088	839.28613
3256.5027	848.66162
3257.9966	854.68439
3259.4902	831.87189
3260.9841	819.30267
3262.478	820.02271
3263.9719	839.98676
3265.4658	806.06793
3266.9595	819.47083
3268.4534	846.67834
3269.9473	815.90686
3271.4412	806.54553
3272.9351	828.36035
3274.4287	823.50775
3275.9226	826.92291
3277.4165	848.10327
3278.9104	842.68683
3280.4043	849.38849
3281.8979	837.16071
3283.3918	835.19208
3284.8857	845.77478
3286.3796	885.43933
3287.8735	822.13245
3289.3674	837.78461
3290.8611	832.83807
3292.355	840.53247
3293.8489	836.77197
3295.3428	818.51703
3296.8367	835.59857
3298.3303	822.45331
3299.8242	835.39063
3301.3181	833.09821
3302.812	835.09137
3304.3059	826.83978
3305.7996	828.05164
3307.2935	813.94208
3308.7874	814.77783
3310.2813	834.22076
3311.7751	810.53748
3313.2688	823.39276
3314.7627	805.34912
3316.2566	834.46735
3317.7505	833.26941
3319.2444	809.46356
3320.738	806.31696
3322.2319	843.59357
3323.7258	818.86243
3325.2197	801.19489
3326.7136	812.75574
3328.2073	832.62823
3329.7012	855.07367
3331.1951	795.6601
3332.689	787.80652
3334.1829	801.21399
3335.6765	791.9989
3337.1704	793.72876
3338.6643	804.49841
3340.1582	830.52734
3341.6521	804.54181
3343.1458	801.6427
3344.6396	799.07263
3346.1335	824.2951
3347.6274	803.57159
3349.1213	823.11249
3350.6152	807.4704
3352.1089	789.86194
3353.6028	825.69415
3355.0967	841.97266
3356.5906	808.19769
3358.0845	817.94629
3359.5781	820.89874
3361.072	794.72723
3362.5659	838.55542
3364.0598	810.4632
3365.5537	785.78137
3367.0474	809.66058
3368.5413	766.60114
3370.0352	801.80133
3371.5291	821.08746
3373.0229	786.46741
3374.5166	837.6059
3376.0105	797.64124
3377.5044	828.05743
3378.9983	835.00891
3380.4922	813.53741
3381.9858	810.44299
3383.4797	856.87787
3384.9736	806.40576
3386.4675	801.82263
3387.9614	789.48279
3389.4551	788.03107
3390.949	819.22296
3392.4429	802
3393.9368	802
3395.4307	810.93994
3396.9243	828.80377
3398.4182	831.39801
3399.9121	832.76849
3401.406	798.94183
3402.8999	788.03296
3404.3936	818.71045
3405.8875	806.49622
3407.3813	789.51971
3408.8752	772.17523
3410.3691	803.04889
3411.863	816.34503
3413.3567	780.64661
3414.8506	792.9469
3416.3445	829.42871
3417.8384	769.28076
3419.3323	796.78058
3420.8259	797.93182
3422.3198	792.83893
3423.8137	800.87512
3425.3076	734.50195
3426.8015	793.60193
3428.2952	763.19775
3429.7891	777.38458
3431.283	783.87671
3432.7769	815.29517
3434.2708	843.94208
3435.7644	832.25
3437.2583	840.09607
3438.7522	806.70398
3440.2461	822.01263
3441.74	769.10071
3443.2336	775.5993
3444.7275	803.14856
3446.2214	795.36566
3447.7153	798.68372
3449.2092	799.89221
3450.7029	817.50867
3452.1968	818.09027
3453.6907	796.69183
3455.1846	797.47528
3456.6785	782.06189
3458.1721	810.17804
3459.666	802.36548
3461.1599	813.13422
3462.6538	833.58685
3464.1477	778.39362
3465.6414	785.7511
3467.1353	815.49951
3468.6292	805.45892
3470.123	783.90765
3471.6169	783
3473.1108	781.09473
3474.6045	807.96576
3476.0984	818.95801
3477.5923	777.05719
3479.0862	794.34882
3480.5801	780.18451
3482.0737	769.03619
3483.5676	809.98608
3485.0615	785.27094
3486.5554	763.42566
3488.0493	790.32324
3489.543	764.47925
3491.0369	758.57581
3492.5308	758.60718
3494.0247	772.22955
3495.5186	789.62799
3497.0122	787.9151
3498.5061	792.99609
3500	773.28735
