100	4927.3062
101.49385	4944.3569
102.9877	4901.2363
104.48154	4959.2598
105.9754	4991.6152
107.46925	4953.0049
108.9631	5019.6353
110.45694	4921.4897
111.95079	4952.6309
113.44464	4992.7974
114.93849	4971.4453
116.43233	4884.9038
117.92619	4883.2769
119.42004	4959.9595
120.91389	4997
122.40773	4977.9233
123.90158	4914.0278
125.39543	4775.6465
126.88928	4789.3521
128.38313	4800.2397
129.87698	4821.8394
131.37082	4831.5825
132.86467	4731.1187
134.35852	4758.8223
135.85237	4673.7085
137.34622	4670.8887
138.84007	4731.2061
140.33392	4728.2007
141.82777	4720.0464
143.32161	4793.6514
144.81546	4838.7471
146.30931	4834.5117
147.80316	4792.6992
149.29701	4750.2627
150.79086	4686.4351
152.28471	4755.166
153.77856	4730.9834
155.27242	4656.1479
156.76625	4759.2544
158.2601	4790.2964
159.75395	4806.7852
161.2478	4732.8887
162.74165	4681.9316
164.2355	4759.9053
165.72935	4910.3306
167.22321	4859.9556
168.71704	4806.2476
170.21089	4795.2002
171.70474	4812.1636
173.19859	4798.6348
174.69244	4733.168
176.18629	4846.2065
177.68015	4878.5107
179.174	4903.8359
180.66783	5001.9771
182.16168	5018.3755
183.65553	5106.4604
185.14938	5185.2539
186.64323	5219.7202
188.13708	5214.3047
189.63094	5216.2344
191.12479	5378.5493
192.61862	5362.8032
194.11247	5397.6616
195.60632	5479.5288
197.10017	5526.6162
198.59402	5422.3037
200.08788	5553.083
201.58173	5443.2808
203.07558	5245.644
204.56943	5066.5498
206.06326	4961.2388
207.55711	4954.6611
209.05096	4890.4648
210.54482	4798.5269
212.03867	4759.6753
213.53252	4795.6484
215.02637	4834.8394
216.52022	4768.1777
218.01405	4717.0249
219.5079	4707.4019
221.00175	4719.5425
222.49561	4733.9932
223.98946	4786.7051
225.48331	4653.6372
226.97716	4617
228.47101	4612.665
229.96484	4565.0488
231.45869	4437.9414
232.95255	4376.1094
234.4464	4371.9155
235.94025	4384.0659
237.4341	4360.1416
238.92795	4309.6343
240.4218	4326.3208
241.91563	4397.2905
243.40948	4389.0195
244.90334	4337.8442
246.39719	4321.8618
247.89104	4361.2891
249.38489	4297.6968
250.87874	4344.1836
252.37259	4395.6265
253.86644	4361.7017
255.36028	4316.8447
256.85413	4380.5693
258.34799	4400.4097
259.84183	4359.4575
261.33566	4291.4683
262.82953	4265.8018
264.32336	4289.0293
265.81723	4303.7969
267.31107	4288.9023
268.80493	4289.1631
270.29877	4320.7178
271.79263	4353.9048
273.28647	4368.4292
274.7803	4370.3276
276.27417	4273.4175
277.76801	4287.9292
279.26187	4261.2754
280.75571	4269.1206
282.24957	4333.501
283.74341	4221.0366
285.23724	4260.834
286.73111	4334.2505
288.22495	4372.8843
289.71881	4375.7769
291.21265	4344.6528
292.70651	4195.3003
294.20035	4264.3477
295.69421	4326.4717
297.18805	4308.2861
298.68188	4261.8394
300.17575	4276.4067
301.66959	4312.1206
303.16345	4248.7549
304.65729	4275.3999
306.15115	4307.9238
307.64499	4302.8516
309.13885	4271.4746
310.63269	4252.375
312.12653	4259.4883
313.62039	4266.8262
315.11423	4202.1323
316.60809	4141.228
318.10193	4219.9536
319.59579	4253.2017
321.08963	4127.937
322.58347	4099.8945
324.07733	4084.4988
325.57117	4048.3201
327.06503	4043.3552
328.55887	4118.3228
330.05273	4037.8245
331.54657	4084.4685
333.04044	4113.9312
334.53427	4096.3799
336.02811	4127.5137
337.52197	4086.6582
339.01581	4150.5747
340.50967	4158.3535
342.00351	4149
343.49738	4138.0156
344.99121	4107.0952
346.48505	4107.9297
347.97891	4135.5205
349.47275	4103.8447
350.96661	4009.2446
352.46045	3916.6885
353.95432	3904.8953
355.44815	3904.0598
356.94202	3834.189
358.43585	3757.1433
359.92969	3689.2505
361.42355	3615.46
362.91739	3533.8408
364.41125	3574.8152
365.90509	3517.6169
367.39896	3484.4084
368.89279	3445.1765
370.38666	3430.0989
371.88049	3463.1335
373.37433	3409.5642
374.86819	3428.3184
376.36203	3448.6011
377.8559	3444.8125
379.34973	3433.3
380.8436	3442.5105
382.33743	3476.0005
383.83127	3476.8384
385.32513	3370.7551
386.81897	3351.4138
388.31284	3390.8943
389.80667	3404.3948
391.30054	3383.8699
392.79437	3352.8345
394.28824	3345.8752
395.78207	3345.5481
397.27591	3364.998
398.76978	3377.7437
400.26361	3317.2703
401.75748	3295.4399
403.25131	3324.3286
404.74518	3364.8762
406.23901	3352.3596
407.73288	3293.967
409.22672	3263.0005
410.72055	3302.5471
412.21442	3282.9238
413.70825	3275.7415
415.20212	3252.4397
416.69595	3250.9451
418.18982	3299.8938
419.68365	3277.1799
421.17749	3281.1785
422.67136	3240.6768
424.16519	3204.3892
425.65906	3165.9031
427.15289	3135.5471
428.64676	3177.4944
430.14059	3186.7698
431.63446	3215.0334
433.1283	3208.9526
434.62213	3229.428
436.116	3280.6936
437.60983	3288.6938
439.1037	3220.4089
440.59753	3193.915
442.0914	3229.084
443.58524	3270.1384
445.07907	3263.3792
446.57294	3193.915
448.06677	3116.4219
449.56064	3053.8931
451.05447	3036.0286
452.54834	3107.7109
454.04218	3177.9524
455.53604	3180.8977
457.02988	3156.2852
458.52371	3181.6296
460.01758	3118.8179
461.51141	3106.9587
463.00528	3110.6277
464.49911	3089.5969
465.99298	3046.9431
467.48682	3057.9363
468.98068	3144.6135
470.47452	3155.4993
471.96835	3125.2292
473.46222	3115.4495
474.95605	3123.5747
476.44992	3070.0354
477.94376	3059.0295
479.43762	3127.9307
480.93146	3148.3843
482.42529	3155.8743
483.91916	3151.3174
485.41299	3119.1011
486.90686	3109.5417
488.4007	3190.1555
489.89456	3191.3611
491.3884	3133.6877
492.88226	3047.0916
494.3761	2974.3152
495.86993	2961.0613
497.3638	3022.9941
498.85764	2918.9338
500.3515	2885.2083
501.84534	2845.5227
503.3392	2812.1099
504.83304	2811.3689
506.3269	2772.4824
507.82074	2721.5193
509.31458	2710.5496
510.80844	2687.1077
512.30231	2686.5857
513.79614	2699.1487
515.28998	2693.9956
516.78381	2747.6216
518.27771	2737.0105
519.77155	2702.9832
521.26538	2710.8914
522.75922	2706.6797
524.25305	2656.0161
525.74695	2613.8555
527.24078	2687.9924
528.73462	2663.0078
530.22845	2598.1328
531.72229	2633.7351
533.21619	2683.9778
534.71002	2657.3518
536.20386	2640.4888
537.69769	2596.1772
539.19159	2616.7322
540.68542	2644.0422
542.17926	2698.6604
543.6731	2727.7141
545.16693	2696.5391
546.66083	2710.8342
548.15466	2686.093
549.6485	2700.1921
551.14233	2702.9905
552.63623	2698.7205
554.13007	2717.3875
555.6239	2767.9663
557.11774	2782.5466
558.61157	2762.8787
560.10547	2732.2888
561.5993	2720.8313
563.09314	2714.2817
564.58698	2727.9822
566.08087	2773.4658
567.57471	2747.5303
569.06854	2681.6118
570.56238	2746.4326
572.05621	2735.1902
573.55011	2757.9883
575.04395	2791.0066
576.53778	2714.2163
578.03162	2804.9302
579.52551	2679.7954
581.01935	2714.7515
582.51318	2688.998
584.00702	2683.8489
585.50085	2696.3914
586.99475	2632.0476
588.48859	2673.9597
589.98242	2654.2239
591.47626	2653.8721
592.97009	2581.8044
594.46399	2557.967
595.95782	2607.8137
597.45166	2627.355
598.9455	2589.6929
600.43939	2563.063
601.93323	2607.0569
603.42706	2583.8767
604.9209	2560.8101
606.41473	2595.281
607.90863	2653.0093
609.40247	2632.1897
610.8963	2605.5288
612.39014	2582.5947
613.88403	2604.5139
615.37787	2660.3269
616.8717	2688.3052
618.36554	2654.0671
619.85938	2635.7964
621.35327	2614.2705
622.84711	2630.488
624.34094	2616.4194
625.83478	2612.8892
627.32867	2626.3198
628.82251	2649.4146
630.31635	2697.7654
631.81018	2695.1794
633.30402	2705.4312
634.79791	2696.0354
636.29175	2701.0825
637.78558	2694.5837
639.27942	2665.957
640.77332	2664.917
642.26715	2723.6008
643.76099	2738.4814
645.25482	2716.2947
646.74866	2757.8059
648.24255	2753.2805
649.73639	2692.7378
651.23022	2684.3584
652.72406	2682.7578
654.21796	2744.9751
655.71179	2725.145
657.20563	2706.7302
658.69946	2737.7068
660.1933	2766.9172
661.68719	2746.0874
663.18103	2738.845
664.67487	2737.1147
666.1687	2781.4358
667.66254	2696.271
669.15643	2745.5947
670.65027	2801.0298
672.1441	2750.2329
673.63794	2716.5505
675.13184	2720.0112
676.62567	2722.613
678.11951	2741.4399
679.61334	2755.8542
681.10718	2716.2678
682.60107	2676.8064
684.09491	2713.5745
685.58875	2767.2861
687.08258	2687.4963
688.57648	2745.0005
690.07031	2747.8452
691.56415	2775.7024
693.05798	2787.1096
694.55182	2763.5598
696.04572	2759.96
697.53955	2731.998
699.03339	2781.4983
700.52722	2809.126
702.02112	2859.0017
703.51495	2840.1692
705.00879	2780.5977
706.50262	2797.2551
707.99646	2920.5222
709.49036	2829.9961
710.98419	2828.6816
712.47803	2911.5151
713.97186	2968.843
715.46576	2945.3628
716.95959	2941.085
718.45343	3033.6824
719.94727	3023.873
721.4411	3022.1318
722.935	3035.698
724.42883	3097.2104
725.92267	3054.2427
727.4165	3062.3867
728.91034	3150.2068
730.40424	3131.6492
731.89807	3084.8196
733.39191	3104.8689
734.88574	3181.8931
736.37964	3114.9253
737.87347	3101.6121
739.36731	3124.0393
740.86115	3096.0232
742.35498	3067.7095
743.84888	3153.6936
745.34271	3086.4019
746.83655	3025.2813
748.33038	2933.0842
749.82428	2988.7551
751.31812	3061.0215
752.81195	3033.2771
754.30579	3029.2485
755.79962	2870.3523
757.29352	3006.7043
758.78735	2972.7129
760.28119	2963.5977
761.77502	2977.6526
763.26892	2981.2537
764.76276	2945.885
766.25659	2874.3401
767.75043	2896.2805
769.24426	2921.6611
770.73816	2835.95
772.23199	2879.4131
773.72583	2903.5627
775.21967	2880.5923
776.71356	2868.4661
778.2074	2868.4373
779.70123	2875.9824
781.19507	2831.2356
782.6889	2780.2837
784.1828	2841.302
785.67664	2879.9417
787.17047	2874.9287
788.66431	2850.1963
790.15814	2824.0996
791.65204	2931.0471
793.14587	2888.876
794.63971	2900.1436
796.13354	2795.9019
797.62744	2803.3413
799.12128	2858.8066
800.61511	2866.1865
802.10895	2866.1184
803.60278	2894.052
805.09668	2919.5645
806.59052	2856.2334
808.08435	2869.252
809.57819	2891.7864
811.07208	2877.9282
812.56592	2845.6489
814.05975	2838.2202
815.55359	2863.8484
817.04742	2902.6067
818.54132	2991.082
820.03516	3032.6243
821.52899	3036.2886
823.02283	3023.7112
824.51672	2982.4309
826.01056	2964.719
827.50439	3033.7095
828.99823	2966.5728
830.49207	3020.386
831.98596	3086.3096
833.4798	3081.7024
834.97363	3028.968
836.46747	3045.9509
837.96136	3125.5107
839.4552	3151.2712
840.94904	3102.509
842.44287	3072.4756
843.93671	3090.261
845.4306	3064.3777
846.92444	3075.385
848.41827	3137.5356
849.91211	3156.4531
851.40601	3130.1785
852.89984	3162.7415
854.39368	3152.6995
855.88751	3163.3157
857.38135	3135.0261
858.87524	3188.1631
860.36908	3159.978
861.86292	3122.5837
863.35675	3126.2673
864.85059	3134.4578
866.34448	3120.4229
867.83832	3081.5752
869.33215	3135.6216
870.82599	3155.3643
872.31989	3031.7131
873.81372	3039.2129
875.30756	3054.2371
876.80139	3011.6233
878.29523	2987.7437
879.78912	2916.8818
881.28296	2915.8728
882.77679	2894.5762
884.27063	2936.521
885.76453	2932.9448
887.25836	2948.9409
888.7522	2930.2002
890.24603	2870.3545
891.73987	2827.0979
893.23376	2765.6409
894.7276	2778.9685
896.22144	2763.0408
897.71527	2747.802
899.20917	2724.6978
900.703	2738.2988
902.19684	2709.0469
903.69067	2678.3418
905.18451	2740.7952
906.67841	2751.1533
908.17224	2728.8076
909.66608	2682.5254
911.15991	2727.9546
912.65381	2770.3181
914.14764	2717.2871
915.64148	2665.5435
917.13531	2674.7224
918.62915	2714.6694
920.12305	2778.8262
921.61688	2744.4097
923.11072	2761.345
924.60455	2816.0913
926.09839	2748.1616
927.59229	2780.7415
929.08612	2811.1646
930.57996	2821.3555
932.07379	2918.9419
933.56769	3041.1091
935.06152	2947.532
936.55536	2783.2754
938.04919	2898.6985
939.54303	2924.4624
941.03693	2876.8713
942.53076	2936.1909
944.0246	2976.3665
945.51843	2948.8411
947.01233	2996.7153
948.50616	2901.7974
950	2918.7839
951.49384	2926.0708
952.98767	2875.6294
954.48157	2821.2563
955.9754	2905.4954
957.46924	2920.8972
958.96307	2833.2588
960.45697	2802.1624
961.95081	2796.552
963.44464	2836.6907
964.93848	2676.3887
966.43231	2743.9939
967.92621	2637.7783
969.42004	2636.304
970.91388	2627.21
972.40771	2588.5051
973.90161	2591.1616
975.39545	2600.0044
976.88928	2524.7673
978.38312	2522.2317
979.87695	2470.1431
981.37085	2457.7224
982.86469	2359.8748
984.35852	2375.6924
985.85236	2375.7512
987.34619	2333.1709
988.84009	2291.7637
990.33392	2220.9866
991.82776	2234.6743
993.32159	2286.7817
994.81549	2160.6885
996.30933	2156.3423
997.80316	2206.9316
999.297	2178.6672
1000.7908	2159.8372
1002.2847	2165.1389
1003.7786	2133.228
1005.2724	2103.3298
1006.7662	2140.6467
1008.2601	2090.2524
1009.754	2127.657
1011.2478	2096.8953
1012.7416	2067.0469
1014.2355	2083.1855
1015.7294	2079.4438
1017.2232	2065.4443
1018.717	2077.4326
1020.2109	2073.9253
1021.7048	2045.9468
1023.1986	2102.6157
1024.6924	2071.0603
1026.1863	2136.4817
1027.6802	2137.6365
1029.174	2097.2092
1030.6678	2105.8606
1032.1617	2129.5864
1033.6555	2098.9131
1035.1494	2061.6702
1036.6432	2123.4548
1038.1371	2189.8518
1039.631	2208.8372
1041.1248	2205.7551
1042.6187	2162.8074
1044.1124	2136.4976
1045.6063	2144.0691
1047.1002	2144.7231
1048.594	2135.9727
1050.0879	2145.7051
1051.5817	2161.46
1053.0756	2182.4314
1054.5695	2238.585
1056.0632	2174.2637
1057.5571	2224.9641
1059.051	2207.7085
1060.5448	2195.6174
1062.0387	2177.1616
1063.5325	2181.4639
1065.0264	2197.5686
1066.5203	2163.2854
1068.014	2142.595
1069.5079	2193.0601
1071.0017	2130.4521
1072.4956	2249.2034
1073.9895	2178.9067
1075.4833	2174.6213
1076.9772	2194.7163
1078.4709	2199.4827
1079.9648	2204.4106
1081.4587	2201.5564
1082.9525	2166.5977
1084.4464	2153.106
1085.9402	2200.7161
1087.4341	2136.1729
1088.928	2142.5093
1090.4218	2126.2026
1091.9156	2175.6616
1093.4095	2169.5747
1094.9033	2184.7407
1096.3972	2196.1714
1097.891	2140.9165
1099.3849	2083.7793
1100.8788	2052.0671
1102.3726	2161.8647
1103.8665	2209.2227
1105.3602	2110.1777
1106.8541	2097.5754
1108.348	2111.2788
1109.8418	2131.6624
1111.3357	2147.2744
1112.8295	2135.1843
1114.3234	2117.541
1115.8173	2121.0278
1117.311	2110.0288
1118.8049	2150.6917
1120.2988	2114.1528
1121.7926	2199.417
1123.2865	2178.4277
1124.7803	2184.4829
1126.2742	2189
1127.7681	2167.6567
1129.2618	2206.0999
1130.7557	2251.072
1132.2495	2214.5051
1133.7434	2196.2498
1135.2373	2224.0349
1136.7311	2213.4805
1138.225	2263.7664
1139.7188	2274.7485
1141.2126	2314.6873
1142.7065	2233.4468
1144.2003	2225.3728
1145.6942	2292.7151
1147.188	2320.5837
1148.6819	2319.8484
1150.1758	2330.3535
1151.6696	2288.7463
1153.1635	2318.0471
1154.6573	2366.1816
1156.1511	2400.9951
1157.645	2325.2854
1159.1388	2297.3835
1160.6327	2334.1614
1162.1266	2398.1321
1163.6204	2419.5459
1165.1143	2384.2327
1166.608	2357.8115
1168.1019	2361.5898
1169.5958	2354.1089
1171.0896	2437.6077
1172.5835	2440.1067
1174.0773	2395.9941
1175.5712	2422.9292
1177.0651	2371.2866
1178.5588	2464.189
1180.0527	2447.4111
1181.5466	2377.6016
1183.0404	2367.9023
1184.5343	2382.7241
1186.0281	2390.7739
1187.522	2421.8799
1189.0159	2398.3379
1190.5096	2413.2349
1192.0035	2365.4031
1193.4973	2372.3069
1194.9912	2388.8379
1196.4851	2423.7009
1197.9789	2430.6221
1199.4728	2384.8306
1200.9666	2351.3689
1202.4604	2340.9563
1203.9543	2325.4885
1205.4481	2303.501
1206.942	2271.6592
1208.4359	2265.5996
1209.9297	2364.3398
1211.4236	2352.3557
1212.9174	2346.6255
1214.4113	2373.8472
1215.9052	2326.6062
1217.3989	2339.9146
1218.8928	2318.915
1220.3866	2279.6899
1221.8805	2308.7971
1223.3744	2350.7734
1224.8682	2327.2981
1226.3621	2331.707
1227.8558	2356.4204
1229.3497	2301.6489
1230.8436	2328.4736
1232.3374	2373.3928
1233.8313	2358.8838
1235.3251	2374.6714
1236.819	2371.4487
1238.3129	2384.613
1239.8066	2372.0229
1241.3005	2342.7395
1242.7944	2360.7317
1244.2882	2400.0149
1245.7821	2389
1247.2759	2402.6677
1248.7698	2464.4829
1250.2637	2389.1409
1251.7574	2396.5591
1253.2513	2417.0613
1254.7451	2537.5618
1256.239	2562.6355
1257.7329	2458.9016
1259.2267	2450.4014
1260.7206	2517.696
1262.2144	2522.9338
1263.7083	2510.1204
1265.2021	2523.3943
1266.6959	2480.8689
1268.1898	2552.6934
1269.6837	2555.7817
1271.1775	2609.6533
1272.6714	2661.7014
1274.1652	2658.0347
1275.6591	2653.7983
1277.153	2670.5273
1278.6467	2628.7917
1280.1406	2616.9924
1281.6344	2628.6047
1283.1283	2631.4514
1284.6222	2654.9282
1286.116	2686.053
1287.6099	2677.8796
1289.1036	2684.5935
1290.5975	2646.3835
1292.0914	2658.6067
1293.5852	2673.5125
1295.0791	2664.085
1296.5729	2761.3337
1298.0668	2758.0369
1299.5607	2699.3691
1301.0544	2677
1302.5483	2658.4292
1304.0422	2692.0652
1305.536	2701.1116
1307.0299	2666.1309
1308.5237	2698.2959
1310.0176	2709.7742
1311.5115	2733.3013
1313.0052	2666.7454
1314.4991	2654.1504
1315.9929	2627.9968
1317.4868	2700.7671
1318.9807	2702.3274
1320.4745	2636.4368
1321.9684	2666.2283
1323.4622	2618.0862
1324.9561	2655.8809
1326.45	2702.303
1327.9437	2685.3293
1329.4376	2692.2068
1330.9315	2700.2441
1332.4253	2649.0889
1333.9192	2606.1321
1335.413	2617.4863
1336.9069	2662.3892
1338.4008	2653.0137
1339.8945	2697.8887
1341.3884	2633.8616
1342.8822	2726.8452
1344.3761	2659.8521
1345.87	2633.7903
1347.3638	2700.7361
1348.8577	2641.3662
1350.3514	2577.9475
1351.8453	2636.0896
1353.3392	2673.1133
1354.833	2687.0093
1356.3269	2754.718
1357.8207	2660.7178
1359.3146	2699.49
1360.8085	2658.8025
1362.3022	2696.1902
1363.7961	2715.9116
1365.29	2685.9006
1366.7838	2667.9214
1368.2777	2700.3608
1369.7715	2691.8638
1371.2654	2744.4019
1372.7593	2729.2095
1374.2531	2723.606
1375.7469	2756.4941
1377.2407	2800.6907
1378.7346	2826.9644
1380.2285	2769.9207
1381.7223	2739.4651
1383.2162	2756.6418
1384.71	2758.7639
1386.2039	2781.6514
1387.6978	2717.2456
1389.1915	2756.8071
1390.6854	2819.5781
1392.1793	2827.8333
1393.6731	2880.0271
1395.167	2874.8362
1396.6608	2817.2639
1398.1547	2833.8652
1399.6486	2830.1858
1401.1423	2856.3779
1402.6362	2888.8315
1404.13	2883.2771
1405.6239	2875.4929
1407.1178	2803.1367
1408.6116	2828.022
1410.1055	2822.0591
1411.5992	2884.3628
1413.0931	2874.137
1414.587	2785.3416
1416.0808	2795.365
1417.5747	2867.9573
1419.0685	2856.9929
1420.5624	2864.698
1422.0563	2888.3394
1423.55	2907.4429
1425.0439	2877.7
1426.5378	2852.0386
1428.0316	2784.3435
1429.5255	2784.7068
1431.0193	2868.0039
1432.5132	2857.7625
1434.0071	2804.8586
1435.5009	2805.0229
1436.9948	2833.8479
1438.4885	2798.833
1439.9824	2765.9238
1441.4763	2794.8171
1442.9701	2812.8462
1444.464	2742.4346
1445.9578	2744.2305
1447.4517	2752.5544
1448.9456	2740.6042
1450.4393	2734.0505
1451.9332	2740.5593
1453.4271	2743.3628
1454.9209	2725.3796
1456.4148	2704.9351
1457.9086	2687.7488
1459.4025	2669.9795
1460.8964	2694.1138
1462.3901	2733.4001
1463.884	2688.2896
1465.3778	2636.2991
1466.8717	2634.8889
1468.3656	2653.6296
1469.8594	2672.9155
1471.3533	2707.4058
1472.847	2677.0605
1474.3409	2707.5342
1475.8348	2726.2258
1477.3286	2711.6738
1478.8225	2686.2622
1480.3163	2664.9351
1481.8102	2688.0071
1483.3041	2700.3428
1484.7979	2697.8765
1486.2917	2671.1292
1487.7856	2659.3862
1489.2794	2700.4858
1490.7733	2738.8804
1492.2671	2751.4385
1493.761	2757.8364
1495.2549	2745.5061
1496.7487	2762.666
1498.2426	2759.4282
1499.7363	2791.4744
1501.2302	2872.3013
1502.7241	2775.72
1504.2179	2856.5212
1505.7118	2951.1384
1507.2056	2876.1331
1508.6995	2934.4045
1510.1934	2920.3433
1511.6871	2896.5728
1513.181	2839.3916
1514.6749	2932.9548
1516.1687	2969.5579
1517.6626	2915.7151
1519.1564	2933.4099
1520.6503	3040.8242
1522.1442	3022.1367
1523.6379	2997.6106
1525.1318	3062.3091
1526.6256	3084.48
1528.1195	3083.3306
1529.6134	3090.1011
1531.1072	3148.1177
1532.6011	3135.207
1534.0948	3155.7397
1535.5887	3095.5354
1537.0826	3189.9521
1538.5764	3268.4783
1540.0703	3203.9143
1541.5641	3165.5273
1543.058	3154.5869
1544.5519	3178.5105
1546.0457	3104.6062
1547.5396	3132.7693
1549.0334	3163.1189
1550.5272	3249.3469
1552.0211	3253.1948
1553.5149	3146.2659
1555.0088	3168.3215
1556.5027	3179.9045
1557.9965	3179.48
1559.4904	3207.5774
1560.9841	3195.2842
1562.478	3195.8376
1563.9719	3260.9795
1565.4657	3278.6492
1566.9596	3238.0554
1568.4534	3268.77
1569.9473	3275.6929
1571.4412	3181.8286
1572.9349	3175.179
1574.4288	3197.3193
1575.9227	3228.6677
1577.4165	3281.6985
1578.9104	3237.7307
1580.4042	3311.9619
1581.8981	3144.9507
1583.392	3237.0391
1584.8857	3194.0134
1586.3796	3195.1113
1587.8734	3149.9087
1589.3673	3160.2961
1590.8612	3205.7827
1592.355	3143.6931
1593.8489	3142.2861
1595.3427	3175.7275
1596.8365	3198.4319
1598.3304	3117.0664
1599.8242	3077.228
1601.3181	3138.7529
1602.812	3120.0593
1604.3058	3004.4133
1605.7997	2982.7119
1607.2935	3020.1428
1608.7874	2983.5015
1610.2813	2961.3435
1611.775	2977.9021
1613.2689	3010.481
1614.7627	3004.249
1616.2566	2997.1492
1617.7505	2944.2554
1619.2443	2850.7996
1620.7382	2914.5781
1622.2319	2846.5823
1623.7258	2882.6699
1625.2197	2779.2146
1626.7135	2811.3438
1628.2074	2706.5212
1629.7012	2797.7839
1631.1951	2702.1111
1632.689	2690.3357
1634.1827	2683.1252
1635.6766	2598.0928
1637.1705	2561.7444
1638.6643	2624.3457
1640.1582	2588.7988
1641.652	2580.7705
1643.1459	2594.6638
1644.6398	2507.5479
1646.1335	2487.6831
1647.6274	2552.8577
1649.1212	2516.448
1650.6151	2418.1213
1652.109	2393.5483
1653.6028	2406.7065
1655.0967	2396.3643
1656.5905	2398.6189
1658.0844	2426.3684
1659.5782	2430.0049
1661.072	2398.7673
1662.5659	2334.3901
1664.0598	2335.5374
1665.5536	2367.1582
1667.0475	2332.7043
1668.5413	2330.1177
1670.0352	2309.4299
1671.5291	2362.7451
1673.0228	2322.1851
1674.5167	2274.531
1676.0105	2201.1423
1677.5044	2207.7529
1678.9983	2307.8926
1680.4921	2266.6606
1681.986	2189.8269
1683.4797	2246.7139
1684.9736	2277.6711
1686.4675	2213.9153
1687.9613	2165.7148
1689.4552	2186.4124
1690.949	2158.3674
1692.4429	2167.3264
1693.9368	2151.9431
1695.4305	2197.8472
1696.9244	2207.3665
1698.4183	2173.8767
1699.9121	2168.2661
1701.406	2163.0371
1702.8998	2163.2783
1704.3937	2133.1643
1705.8876	2088.9048
1707.3813	2125.5347
1708.8752	2142.2136
1710.369	2153.8301
1711.8629	2159.082
1713.3568	2128.5923
1714.8506	2108.4968
1716.3445	2095.1633
1717.8383	2075.946
1719.3322	2116.541
1720.826	2086.8647
1722.3198	2086.8765
1723.8137	2099.0996
1725.3076	2118.0974
1726.8014	2117.7197
1728.2953	2107.5508
1729.7891	2093.335
1731.283	2100.3264
1732.7769	2079.7588
1734.2706	2054.4202
1735.7645	2091.5994
1737.2583	2093.3423
1738.7522	2068.1292
1740.2461	2051.5278
1741.7399	2080.6096
1743.2338	2087.8599
1744.7275	2094.1411
1746.2214	2074.4604
1747.7153	2086.9048
1749.2091	2093.2791
1750.703	2134.8088
1752.1968	2113.4932
1753.6907	2101.0537
1755.1846	2126.915
1756.6783	2170.6523
1758.1722	2168.9302
1759.6661	2151.8796
1761.1599	2131.9746
1762.6538	2133.699
1764.1476	2200.4341
1765.6415	2196.7019
1767.1354	2168.8877
1768.6292	2200.4482
1770.123	2162.2568
1771.6168	2204.1248
1773.1107	2141.8123
1774.6046	2178.7639
1776.0984	2138.7466
1777.5923	2147.5073
1779.0861	2170.7192
1780.58	2155.0791
1782.0739	2148.7463
1783.5676	2149.5024
1785.0615	2210.1096
1786.5554	2154.9939
1788.0492	2106.699
1789.5431	2164.6765
1791.0369	2183.1084
1792.5308	2143.6069
1794.0247	2102.5823
1795.5184	2113.084
1797.0123	2109.4136
1798.5061	2102.3198
1800	2115.3801
1801.4939	2074.1436
1802.9877	2071.5964
1804.4816	2091.3267
1805.9753	2124.5391
1807.4692	2092.9775
1808.9631	2023.6127
1810.4569	2089.189
1811.9508	2083.9888
1813.4446	2114.769
1814.9385	2061.4719
1816.4324	2049.2178
1817.9261	2032.5962
1819.42	2011.2842
1820.9139	1977.5081
1822.4077	2050.147
1823.9016	2107.4619
1825.3954	2082.6055
1826.8893	2072.6589
1828.3832	2043.0702
1829.877	2041.5571
1831.3708	2057.2632
1832.8646	2026.981
1834.3585	2027.4808
1835.8524	2032.5131
1837.3462	1988.2794
1838.8401	1985.892
1840.3339	1991.6144
1841.8278	2008.4707
1843.3217	2034.2476
1844.8154	2019.9153
1846.3093	1986.0416
1847.8032	1956.0255
1849.297	1966.5076
1850.7909	1967.3021
1852.2847	1993.3424
1853.7786	2009.043
1855.2725	1987.6736
1856.7662	1988.4576
1858.2601	1992.6021
1859.7539	2006.2631
1861.2478	1977.0688
1862.7417	1944.3535
1864.2355	1938.1973
1865.7294	1981.4663
1867.2231	2031.8275
1868.717	2045.3804
1870.2109	2046.2573
1871.7047	2015.2703
1873.1986	2010.0007
1874.6924	2034.7649
1876.1863	2077.5576
1877.6802	2047.2498
1879.174	2029.8158
1880.6678	2060.9519
1882.1617	2078.4954
1883.6555	2061.7361
1885.1494	2096.3962
1886.6432	2095.0315
1888.1371	2095.1301
1889.631	2109.7317
1891.1248	2126.1616
1892.6187	2113.3503
1894.1124	2070.043
1895.6063	2061.3325
1897.1002	2095.189
1898.594	2095.4629
1900.0879	2140.5007
1901.5817	2144.0054
1903.0756	2097.8079
1904.5695	2133.6565
1906.0632	2077.8499
1907.5571	2085.3418
1909.051	2091.6377
1910.5448	2085.7004
1912.0387	2119.968
1913.5325	2097.1604
1915.0264	2067.239
1916.5203	2086.2185
1918.014	2107.8848
1919.5079	2098.0808
1921.0017	2092.4595
1922.4956	2052.9077
1923.9895	2033.8805
1925.4833	2031.356
1926.9772	2066.2085
1928.4709	2122.3447
1929.9648	2114.969
1931.4587	2061.1921
1932.9525	2047.9458
1934.4464	2088.2036
1935.9402	2051.5471
1937.4341	1988.0129
1938.928	1997.5282
1940.4218	2023.1416
1941.9156	2042.2512
1943.4095	2008.8973
1944.9033	1986.6348
1946.3972	2005.9939
1947.891	2008.9337
1949.3849	1978.9193
1950.8788	1956.5059
1952.3726	1947.191
1953.8665	1933.603
1955.3602	1933.5278
1956.8541	1947.302
1958.348	1986.0026
1959.8418	1981.8673
1961.3357	1962.2524
1962.8295	1945.9252
1964.3234	1921.8383
1965.8173	1940.8049
1967.311	1901.8834
1968.8049	1890.9771
1970.2988	1893.2057
1971.7926	1896.5729
1973.2865	1858.7537
1974.7803	1877.8201
1976.2742	1888.4777
1977.7681	1895.0746
1979.2618	1917.7964
1980.7557	1927.5132
1982.2495	1883.5977
1983.7434	1853
1985.2373	1897.5906
1986.7311	1946.2924
1988.225	1934.0259
1989.7188	1883.6152
1991.2126	1882.6312
1992.7065	1885.4894
1994.2003	1893.4966
1995.6942	1908.6626
1997.188	1915.8884
1998.6819	1891.3268
2000.1758	1948.317
2001.6696	1948.2917
2003.1635	1910.2434
2004.6573	1943.1808
2006.1511	1937.5439
2007.645	1904.7897
2009.1388	1908.6428
2010.6327	1977.5259
2012.1266	1946.2335
2013.6204	1949.1527
2015.1143	1944.0294
2016.608	1999.6996
2018.1019	1984.5026
2019.5958	1998.449
2021.0896	2022.2722
2022.5835	1994.7892
2024.0773	1980.5616
2025.5712	1977.0854
2027.0651	2050.9773
2028.5588	1943.041
2030.0527	1960.1732
2031.5466	2024.8005
2033.0404	2021.635
2034.5343	2076.3594
2036.0281	2123.6287
2037.522	2102.9136
2039.0159	2055.3152
2040.5096	2051.437
2042.0035	2062.033
2043.4973	2062.7078
2044.9912	2030.8925
2046.4851	2028.5651
2047.9789	2106.6545
2049.4727	2090.5286
2050.9666	2085.45
2052.4604	2066.5837
2053.9543	2037.6204
2055.4482	2036.5272
2056.9419	2094.5564
2058.4358	2134.5178
2059.9297	2111
2061.4236	2082.4834
2062.9175	2037.8102
2064.4111	2059.4097
2065.905	2086.1104
2067.3989	2082.2092
2068.8928	2096.4844
2070.3867	2072.5132
2071.8804	2037.3204
2073.3743	2040.8091
2074.8682	2041.2762
2076.3621	2057.761
2077.856	2034.3679
2079.3499	1997.1652
2080.8435	2003.7264
2082.3374	1990.9937
2083.8313	1976.8011
2085.3252	1983.6708
2086.8191	2016.0563
2088.3127	1990.6991
2089.8066	2037.7252
2091.3005	1951.2883
2092.7944	1985.793
2094.2883	1962.5664
2095.782	1992.4053
2097.2759	1943.3959
2098.7698	1942.6661
2100.2637	1944.9143
2101.7576	1980.3586
2103.2512	1948.7235
2104.7451	1912.8079
2106.239	1902.7345
2107.7329	1840.4985
2109.2268	1918.9083
2110.7205	1875.9308
2112.2144	1872.6812
2113.7083	1898.8977
2115.2021	1904.5793
2116.696	1831.9277
2118.1897	1895.1035
2119.6836	1912.2928
2121.1775	1901.4839
2122.6714	1884.2825
2124.1653	1895.0018
2125.6589	1894.4263
2127.1528	1893.6914
2128.6467	1869.7886
2130.1406	1887.0586
2131.6345	1924.0295
2133.1282	1918.4756
2134.6221	1854.6306
2136.116	1876.5251
2137.6099	1896.0322
2139.1038	1878.7013
2140.5977	1898.3668
2142.0913	1898.6483
2143.5852	1881.5039
2145.0791	1876.9999
2146.573	1889.9565
2148.0669	1940.0746
2149.5605	1926.3376
2151.0544	1913.9702
2152.5483	1923.2657
2154.0422	1909.5292
2155.5361	1938.8987
2157.0298	2017.402
2158.5237	1961.5428
2160.0176	1939.5514
2161.5115	1939.1484
2163.0054	1906.4865
2164.499	1959.6045
2165.9929	1987.7603
2167.4868	1973
2168.9807	1994.1425
2170.4746	2039.8749
2171.9683	2006.3372
2173.4622	1991.2446
2174.9561	1989.9259
2176.45	1980.4594
2177.9438	2047.2311
2179.4375	2033.1368
2180.9314	2008.7584
2182.4253	2011.6066
2183.9192	2091.0981
2185.4131	2057.7161
2186.9067	2070.1499
2188.4006	2043.8605
2189.8945	2054.96
2191.3884	2044.2999
2192.8823	2081.6255
2194.376	2124.4441
2195.8699	2049.6313
2197.3638	2120.7485
2198.8577	2045.2363
2200.3516	2071.9583
2201.8455	2124.4065
2203.3391	2089.4636
2204.833	2087.0388
2206.3269	2138.8708
2207.8208	2100.3457
2209.3147	2056.0618
2210.8083	2060.3806
2212.3022	2079.616
2213.7961	2069.678
2215.29	2099.9653
2216.7839	2120.0813
2218.2776	2112.6089
2219.7715	2082.6917
2221.2654	2119.9556
2222.7593	2118.0686
2224.2532	2108.6211
2225.7468	2075.967
2227.2407	2086.2085
2228.7346	2095.7832
2230.2285	2112.4924
2231.7224	2083.0923
2233.2161	2077.0925
2234.71	2022.901
2236.2039	2088.4507
2237.6978	1991.0835
2239.1917	2050.5352
2240.6853	2061.2859
2242.1792	2086.6577
2243.6731	2053.7944
2245.167	2023.1482
2246.6609	1940.0261
2248.1545	1971.455
2249.6484	2011.0261
2251.1423	1989.9318
2252.6362	1963.7058
2254.1301	1987.8405
2255.624	1966.3702
2257.1177	1978.7118
2258.6116	1972.9647
2260.1055	1982.494
2261.5994	1956.5552
2263.0933	1995.0015
2264.5869	1910.1884
2266.0808	1957.532
2267.5747	1908.8501
2269.0686	1895.2787
2270.5625	1933.3739
2272.0562	1954.3691
2273.55	1929.7792
2275.0439	1914.9368
2276.5378	1853.2142
2278.0317	1900.9266
2279.5254	1941.9794
2281.0193	1921.3696
2282.5132	1885.1526
2284.0071	1863.2684
2285.501	1887.4303
2286.9946	1857.0381
2288.4885	1897.1078
2289.9824	1906.8391
2291.4763	1917.4886
2292.9702	1887.5303
2294.4639	1890.1858
2295.9578	1879.0192
2297.4517	1841.2559
2298.9456	1823.8149
2300.4395	1910.3855
2301.9331	1828.827
2303.427	1829.0741
2304.9209	1874.4004
2306.4148	1911.8025
2307.9087	1898.5327
2309.4023	1855.5853
2310.8962	1855.0153
2312.3901	1886.3302
2313.884	1913.2788
2315.3779	1875.3512
2316.8718	1838.6537
2318.3655	1815.4664
2319.8594	1854.9943
2321.3533	1893.6893
2322.8472	1874.4594
2324.3411	1892.9385
2325.8347	1823.5967
2327.3286	1899.475
2328.8225	1885.1187
2330.3164	1885.0282
2331.8103	1963.3131
2333.304	1961.2115
2334.7979	1934.5004
2336.2917	1923.3287
2337.7856	1924.6298
2339.2795	1928.7994
2340.7732	1901.9077
2342.2671	1927.5297
2343.761	1939.8705
2345.2549	1946.5311
2346.7488	1931.0331
2348.2424	1954.6097
2349.7363	2018.1796
2351.2302	1924.2836
2352.7241	1936.9803
2354.218	1943.8571
2355.7117	1948.4833
2357.2056	1987.9246
2358.6995	1905.3612
2360.1934	1913.5054
2361.6873	1978.8071
2363.1809	2004.377
2364.6748	1994.2885
2366.1687	2021.8414
2367.6626	2019.744
2369.1565	1981.8585
2370.6501	1963.354
2372.144	1991.562
2373.6379	2025.4033
2375.1318	1988.7704
2376.6257	1988.8566
2378.1196	1995.5406
2379.6133	1958.1937
2381.1072	2049.6277
2382.6011	2036.4215
2384.095	2027.963
2385.5889	2068.3862
2387.0825	2084.5391
2388.5764	2084.8601
2390.0703	2061.3481
2391.5642	2094.0879
2393.0581	2085.0967
2394.5518	2090.7776
2396.0457	2034.5791
2397.5396	2074.0046
2399.0334	2086.7063
2400.5273	2084.5508
2402.021	2016.4159
2403.5149	2071.7429
2405.0088	2100.8206
2406.5027	2100.509
2407.9966	2135.2886
2409.4902	2150.3408
2410.9841	2104
2412.478	2070.8721
2413.9719	2072.8176
2415.4658	2109.1541
2416.9595	2123.426
2418.4534	2075.8848
2419.9473	2069.9766
2421.4412	2109.623
2422.9351	2038.7659
2424.4287	2046.6667
2425.9226	2057.7771
2427.4165	2062.1567
2428.9104	2093.6472
2430.4043	2116.7249
2431.8979	2019.4606
2433.3918	2028.2515
2434.8857	2060.4578
2436.3796	2122.9978
2437.8735	2081.874
2439.3674	2056.5332
2440.8611	2044.3971
2442.355	2087.3777
2443.8489	2039.2941
2445.3428	2055.3647
2446.8367	2062.8347
2448.3303	2006.2999
2449.8242	2078.6082
2451.3181	2031.8477
2452.812	2063.3303
2454.3059	2013.5752
2455.7996	2021.2999
2457.2935	2022.5703
2458.7874	2090.5781
2460.2813	2076.0496
2461.7751	2040.2019
2463.2688	2010.4904
2464.7627	2039.1924
2466.2566	2020.5282
2467.7505	2048.5601
2469.2444	1953.2968
2470.738	2088.5903
2472.2319	2048.5735
2473.7258	2051.7244
2475.2197	2003.0667
2476.7136	2070.2053
2478.2073	2069.1404
2479.7012	2110.1372
2481.1951	2044.9468
2482.689	2067.947
2484.1829	2076.5212
2485.6765	2061.3022
2487.1704	2037.6582
2488.6643	2017.8934
2490.1582	2012.2986
2491.6521	2092.5068
2493.1458	2051.1021
2494.6396	2082.6799
2496.1335	2089.5032
2497.6274	2091.3557
2499.1213	2110.1372
2500.6152	2115.3733
2502.1089	2061.4346
2503.6028	2036.6487
2505.0967	2075.6899
2506.5906	2078.2317
2508.0845	2068.7214
2509.5781	2140.5112
2511.072	2052.2793
2512.5659	2118.6223
2514.0598	2096.4326
2515.5537	2081.6443
2517.0474	2099.499
2518.5413	2108.0649
2520.0352	2116.9561
2521.5291	2143.7739
2523.0229	2063.7905
2524.5166	2066.7192
2526.0105	2104.5171
2527.5044	2086.6487
2528.9983	2104.6257
2530.4922	2078.6006
2531.9858	2076.8433
2533.4797	2083.3987
2534.9736	2086.4087
2536.4675	2103.125
2537.9614	2091.3069
2539.4551	2128.0415
2540.949	2080.7395
2542.4429	2076.7971
2543.9368	2006.1704
2545.4307	2136.4788
2546.9243	2143.918
2548.4182	2149
2549.9121	2155.7778
2551.406	2141.8523
2552.8999	2101
2554.3936	2102.158
2555.8875	2122.9424
2557.3813	2143.5107
2558.8752	2209.0095
2560.3691	2175.7002
2561.863	2241.2732
2563.3567	2175.2698
2564.8506	2172.5681
2566.3445	2165.6433
2567.8384	2149.3174
2569.3323	2163.5496
2570.8259	2178.4729
2572.3198	2162.7039
2573.8137	2161.9009
2575.3076	2242.6667
2576.8015	2221.8369
2578.2952	2150.3516
2579.7891	2232.4045
2581.283	2215.2048
2582.7769	2157.8328
2584.2708	2245.7429
2585.7644	2220.9746
2587.2583	2203.4229
2588.7522	2219.1128
2590.2461	2202.7007
2591.74	2210.1421
2593.2336	2148.1875
2594.7275	2143.0435
2596.2214	2223.3906
2597.7153	2229.7351
2599.2092	2249.0256
2600.7029	2248.4204
2602.1968	2256.3992
2603.6907	2226.2183
2605.1846	2259.5588
2606.6785	2211.4932
2608.1721	2195.5413
2609.666	2239.9082
2611.1599	2226.2146
2612.6538	2320.1943
2614.1477	2232.7056
2615.6414	2228.2642
2617.1353	2273.0366
2618.6292	2226.9326
2620.123	2227.9729
2621.6169	2286.866
2623.1108	2220.3003
2624.6045	2232.6538
2626.0984	2228.678
2627.5923	2201.3518
2629.0862	2244.5767
2630.5801	2194.3899
2632.0737	2235.8699
2633.5676	2275.4063
2635.0615	2241.8899
2636.5554	2202.2644
2638.0493	2200.3611
2639.543	2254.657
2641.0369	2253.2214
2642.5308	2254.9617
2644.0247	2265.4241
2645.5186	2266.3958
2647.0122	2238.4683
2648.5061	2213.4253
2650	2257.6755
2651.4939	2272.8289
2652.9878	2256.9133
2654.4814	2215.1643
2655.9753	2192.4333
2657.4692	2251.521
2658.9631	2275.7961
2660.457	2290.7334
2661.9507	2258.376
2663.4446	2235.9812
2664.9385	2277.6414
2666.4324	2253.2529
2667.9263	2217.7202
2669.4199	2276.7939
2670.9138	2276.4751
2672.4077	2284.4324
2673.9016	2278.5083
2675.3955	2251.7778
2676.8892	2218.9106
2678.3831	2240.4153
2679.877	2243.4932
2681.3708	2242.2686
2682.8647	2304.5195
2684.3586	2275.9634
2685.8523	2285.7158
2687.3462	2331.0366
2688.8401	2287.8677
2690.334	2328.3633
2691.8279	2330.3372
2693.3215	2268.6992
2694.8154	2293.9551
2696.3093	2293.3337
2697.8032	2268.7739
2699.2971	2296.428
2700.7908	2313.4739
2702.2847	2332.4961
2703.7786	2325.9468
2705.2725	2293.5601
2706.7664	2302.6189
2708.26	2307.24
2709.7539	2299.7986
2711.2478	2319.3083
2712.7417	2309.8635
2714.2356	2298.0425
2715.7292	2307.4612
2717.2231	2331.2429
2718.717	2355.7734
2720.2109	2336.8972
2721.7048	2303.9658
2723.1985	2299.5298
2724.6924	2350.5767
2726.1863	2347.3191
2727.6802	2360.7903
2729.1741	2334.2021
2730.6677	2329.8069
2732.1616	2331.3684
2733.6555	2328.291
2735.1494	2327.8789
2736.6433	2332.7434
2738.137	2327.7551
2739.6309	2324.6509
2741.1248	2348.3689
2742.6187	2310.4841
2744.1125	2306.425
2745.6064	2265.9785
2747.1001	2293.7048
2748.594	2304.4834
2750.0879	2303.6765
2751.5818	2324.104
2753.0757	2328.0461
2754.5693	2280.1255
2756.0632	2356.3608
2757.5571	2345.9604
2759.051	2353.3472
2760.5449	2296.9302
2762.0386	2317.1526
2763.5325	2304.4641
2765.0264	2339.1702
2766.5203	2295.0854
2768.0142	2281.9983
2769.5078	2344.3225
2771.0017	2333.4658
2772.4956	2369.5129
2773.9895	2325.7112
2775.4834	2339.772
2776.9771	2295.3035
2778.4709	2284.5334
2779.9648	2327.561
2781.4587	2363.2454
2782.9526	2320.094
2784.4463	2283.1257
2785.9402	2292.6226
2787.4341	2323.6221
2788.928	2304.0979
2790.4219	2334.2903
2791.9155	2303.5803
2793.4094	2295.5859
2794.9033	2277.0581
2796.3972	2308.0803
2797.8911	2303.7168
2799.3848	2310.5833
2800.8787	2318.9021
2802.3726	2321.0398
2803.8665	2288.8579
2805.3604	2322.1838
2806.8542	2315.0491
2808.3479	2322.8826
2809.8418	2338.0554
2811.3357	2289.6675
2812.8296	2321.4841
2814.3235	2332.6455
2815.8171	2259.8552
2817.311	2309.6812
2818.8049	2313.3105
2820.2988	2289.4766
2821.7927	2276.7913
2823.2864	2285.7417
2824.7803	2309.0508
2826.2742	2315.7468
2827.7681	2300.1091
2829.262	2261.6338
2830.7556	2315.2959
2832.2495	2324.9556
2833.7434	2289.1633
2835.2373	2283.6987
2836.7312	2303.438
2838.2249	2340.9946
2839.7188	2311.9561
2841.2126	2282.2576
2842.7065	2243.8757
2844.2004	2283.2813
2845.6941	2268.9814
2847.188	2279.9409
2848.6819	2291.4602
2850.1758	2252.5879
2851.6697	2243.1382
2853.1633	2277.8594
2854.6572	2305.0408
2856.1511	2266.9797
2857.645	2303.0073
2859.1389	2303.7468
2860.6326	2277.5229
2862.1265	2261.5237
2863.6204	2318.2625
2865.1143	2298.9688
2866.6082	2262.7273
2868.1021	2286.9309
2869.5957	2276.4592
2871.0896	2303.2002
2872.5835	2289.3386
2874.0774	2246.7021
2875.5713	2286.7175
2877.0649	2292.729
2878.5588	2320.5767
2880.0527	2280.894
2881.5466	2249.8569
2883.0405	2255.0835
2884.5342	2262.2607
2886.0281	2262.7209
2887.522	2233.4148
2889.0159	2235.03
2890.5098	2247.1919
2892.0034	2261.7832
2893.4973	2276.4355
2894.9912	2259.0754
2896.4851	2232.825
2897.979	2228.0034
2899.4727	2293.1943
2900.9666	2260.3616
2902.4604	2285.4851
2903.9543	2249.6284
2905.4482	2235.4299
2906.9419	2262.1304
2908.4358	2274.1184
2909.9297	2262.2349
2911.4236	2290.9673
2912.9175	2283.0203
2914.4111	2253.1123
2915.905	2251.7974
2917.3989	2252.7295
2918.8928	2277.6882
2920.3867	2263.6064
2921.8804	2304.0574
2923.3743	2341.4106
2924.8682	2258.1101
2926.3621	2233.1814
2927.856	2263.2913
2929.3499	2313.7393
2930.8435	2276.479
2932.3374	2248.2202
2933.8313	2266.2603
2935.3252	2272.3264
2936.8191	2264.5188
2938.3127	2272.0823
2939.8066	2258.6855
2941.3005	2232.9038
2942.7944	2267.7368
2944.2883	2282.8379
2945.782	2273.2019
2947.2759	2258.918
2948.7698	2227.7505
2950.2637	2252.998
2951.7576	2294.0154
2953.2512	2277.1028
2954.7451	2276.3469
2956.239	2310.4814
2957.7329	2225.6614
2959.2268	2237.8337
2960.7205	2298.7144
2962.2144	2288.7659
2963.7083	2277.417
2965.2021	2269.929
2966.696	2195.2983
2968.1897	2261.5566
2969.6836	2249.1782
2971.1775	2231.2397
2972.6714	2297.3386
2974.1653	2297.5562
2975.6589	2296.7117
2977.1528	2259.0208
2978.6467	2285.6116
2980.1406	2282.8118
2981.6345	2309.0979
2983.1282	2276.4065
2984.6221	2273.1931
2986.116	2249.3867
2987.6099	2294.4373
2989.1038	2279.7551
2990.5977	2266.7502
2992.0913	2270.1409
2993.5852	2316.791
2995.0791	2323.3342
2996.573	2250.3054
2998.0669	2281.0786
2999.5605	2288.4778
3001.0544	2285.9148
3002.5483	2263.8044
3004.0422	2213.5872
3005.5361	2215.7212
3007.0298	2272.5305
3008.5237	2247.1892
3010.0176	2278.0325
3011.5115	2267.0017
3013.0054	2278.9243
3014.499	2283.429
3015.9929	2262.8105
3017.4868	2217.709
3018.9807	2244.7336
3020.4746	2246.7578
3021.9683	2289.8679
3023.4622	2299.0305
3024.9561	2248.7214
3026.45	2292.2163
3027.9438	2253.7471
3029.4375	2211.6348
3030.9314	2252.7292
3032.4253	2285.0684
3033.9192	2233.6223
3035.4131	2313.8911
3036.9067	2313.5645
3038.4006	2259.1658
3039.8945	2233.1323
3041.3884	2280.2461
3042.8823	2277.929
3044.376	2325.4697
3045.8699	2293.1421
3047.3638	2302.3354
3048.8577	2310.1177
3050.3516	2306.4409
3051.8455	2281.6865
3053.3391	2228.9116
3054.833	2228.7637
3056.3269	2317.272
3057.8208	2210.3232
3059.3147	2231.5532
3060.8083	2213.3469
3062.3022	2229.5269
3063.7961	2234.7261
3065.29	2258.9993
3066.7839	2266.1453
3068.2776	2275.8708
3069.7715	2283.5288
3071.2654	2253.1682
3072.7593	2250.5764
3074.2532	2213.123
3075.7468	2217.2942
3077.2407	2218.561
3078.7346	2216.0386
3080.2285	2236.5586
3081.7224	2260.1316
3083.2161	2261.0615
3084.71	2193.0024
3086.2039	2284.7024
3087.6978	2183.8521
3089.1917	2233.6377
3090.6853	2226.3962
3092.1792	2153.3823
3093.6731	2244.4626
3095.167	2259.0928
3096.6609	2174.1563
3098.1545	2215.9924
3099.6484	2244.1384
3101.1423	2212.9031
3102.6362	2153.7322
3104.1301	2175.8262
3105.624	2219.814
3107.1177	2204.1643
3108.6116	2231.4424
3110.1055	2164.5735
3111.5994	2248.3264
3113.0933	2236.4119
3114.5869	2211.3669
3116.0808	2233.5222
3117.5747	2292.4026
3119.0686	2148.3127
3120.5625	2221.1826
3122.0562	2230.3105
3123.55	2276.7788
3125.0439	2252.3962
3126.5378	2218.3401
3128.0317	2246.46
3129.5254	2264.8823
3131.0193	2186.4326
3132.5132	2233.5667
3134.0071	2228.7708
3135.501	2260.6663
3136.9946	2178.969
3138.4885	2246.9143
3139.9824	2265.186
3141.4763	2191.1519
3142.9702	2252.0432
3144.4639	2241.6128
3145.9578	2121.3257
3147.4517	2190.4453
3148.9456	2211.9143
3150.4395	2168.6543
3151.9331	2197.1326
3153.427	2232.1421
3154.9209	2176.9851
3156.4148	2206.782
3157.9087	2180.0942
3159.4023	2174.675
3160.8962	2203.2183
3162.3901	2224.9314
3163.884	2178.2358
3165.3779	2144.6267
3166.8718	2174.7717
3168.3655	2242.9949
3169.8594	2209.8547
3171.3533	2233.1199
3172.8472	2137.6665
3174.3411	2255.8562
3175.8347	2257.8252
3177.3286	2189.4482
3178.8225	2155.1577
3180.3164	2271.2795
3181.8103	2188.6182
3183.304	2181.7278
3184.7979	2212.0654
3186.2917	2229.3074
3187.7856	2096.0859
3189.2795	2245.4956
3190.7732	2241.7688
3192.2671	2182.2903
3193.761	2193.7947
3195.2549	2204.6001
3196.7488	2165.7729
3198.2424	2195.9771
3199.7363	2166.6067
3201.2302	2157.8508
3202.7241	2205.0305
3204.218	2157.3167
3205.7117	2218.8992
3207.2056	2175.9407
3208.6995	2185.1028
3210.1934	2237.9241
3211.6873	2135.2456
3213.1809	2161.4504
3214.6748	2239.9126
3216.1687	2176.2437
3217.6626	2149.8076
3219.1565	2169.2419
3220.6501	2143.5437
3222.144	2125.4087
3223.6379	2138.8967
3225.1318	2137.615
3226.6257	2178.9666
3228.1196	2205.2852
3229.6133	2204.0715
3231.1072	2174.8987
3232.6011	2159.8076
3234.095	2125.8267
3235.5889	2157.3652
3237.0825	2162.8823
3238.5764	2141.4907
3240.0703	2119.9697
3241.5642	2125
3243.0581	2162.9031
3244.5518	2147.0322
3246.0457	2021.858
3247.5396	2174.2058
3249.0334	2129.2009
3250.5273	2081.4243
3252.021	2173.6438
3253.5149	2154.7864
3255.0088	2201.8523
3256.5027	2093.8701
3257.9966	2087.8435
3259.4902	2141
3260.9841	2183.5432
3262.478	2087.4993
3263.9719	2165
3265.4658	2154.6765
3266.9595	2124.5293
3268.4534	2156.2495
3269.9473	2095.8865
3271.4412	2022.2821
3272.9351	2068.9971
3274.4287	2055.5752
3275.9226	2074.3816
3277.4165	2158.9065
3278.9104	2093.7312
3280.4043	2146.9712
3281.8979	2121.7048
3283.3918	2106.3076
3284.8857	2112.928
3286.3796	2094.0796
3287.8735	2079.5149
3289.3674	2158.6526
3290.8611	2060.1606
3292.355	2071.3584
3293.8489	2062.1709
3295.3428	2073.0527
3296.8367	2064.8062
3298.3303	2082.8823
3299.8242	2086.2764
3301.3181	2181.6814
3302.812	2117.1938
3304.3059	2042.9033
3305.7996	2060.1924
3307.2935	2087.7737
3308.7874	2097.2222
3310.2813	2100.2366
3311.7751	2058.5435
3313.2688	2059.075
3314.7627	2091.6438
3316.2566	1992.0797
3317.7505	2077.5803
3319.2444	2071.7312
3320.738	2080.0737
3322.2319	2150.7236
3323.7258	1998.2631
3325.2197	2014.0255
3326.7136	2074.8252
3328.2073	2070.9766
3329.7012	2040.9774
3331.1951	2071.2664
3332.689	2067.2554
3334.1829	2043.4364
3335.6765	2079.0044
3337.1704	2029.6885
3338.6643	2061.1609
3340.1582	2011.4144
3341.6521	2043.2457
3343.1458	2057.7578
3344.6396	2062.2041
3346.1335	2060.2256
3347.6274	2087.3655
3349.1213	2102.3223
3350.6152	2019.6111
3352.1089	2025.1785
3353.6028	2041
3355.0967	2049.291
3356.5906	2059.6123
3358.0845	2087.7112
3359.5781	2008.8988
3361.072	2050.3071
3362.5659	2074.5569
3364.0598	2069.1753
3365.5537	2034.7316
3367.0474	2039.046
3368.5413	2060.9861
3370.0352	2010.696
3371.5291	2069.2566
3373.0229	2056.1453
3374.5166	2041.8994
3376.0105	2084.1033
3377.5044	2041.2432
3378.9983	2009.9866
3380.4922	2044.6825
3381.9858	2024.1035
3383.4797	2078.8049
3384.9736	2064.9043
3386.4675	1969.5265
3387.9614	1984.5856
3389.4551	2028.1309
3390.949	2068.9138
3392.4429	2074.9309
3393.9368	2023.792
3395.4307	1968.1727
3396.9243	1954.0602
3398.4182	2026.7836
3399.9121	1993.8665
3401.406	2026.3118
3402.8999	1996.1154
3404.3936	1971.0577
3405.8875	2055.2578
3407.3813	1984.0796
3408.8752	2030.0824
3410.3691	2048.3657
3411.863	2039.8887
3413.3567	2056.2803
3414.8506	2062.3123
3416.3445	2029.668
3417.8384	2026.6469
3419.3323	2059.6499
3420.8259	2033.4431
3422.3198	2071.7971
3423.8137	2086.1272
3425.3076	1974.6531
3426.8015	1997.3044
3428.2952	2005.791
3429.7891	2010.6154
3431.283	2012.7534
3432.7769	1969.1187
3434.2708	2010.3451
3435.7644	2007.0085
3437.2583	1962.2617
3438.7522	1943.0449
3440.2461	1984.8793
3441.74	2005.1095
3443.2336	1992.7354
3444.7275	2057.8533
3446.2214	2008.2762
3447.7153	2052.8291
3449.2092	2049.5469
3450.7029	2028.8595
3452.1968	2012.9524
3453.6907	1969.2865
3455.1846	1950.4115
3456.6785	1956.1508
3458.1721	1993.6163
3459.666	1977.7673
3461.1599	1996.1792
3462.6538	1967.4542
3464.1477	1966.8235
3465.6414	1964.0269
3467.1353	1968.7495
3468.6292	2003.23
3470.123	1970.4146
3471.6169	2024.3096
3473.1108	1983.2924
3474.6045	2000.1995
3476.0984	2015.8713
3477.5923	2004.8981
3479.0862	1966.186
3480.5801	2037.0492
3482.0737	2000.9839
3483.5676	1976.7471
3485.0615	2020.186
3486.5554	2063.1431
3488.0493	2008.2827
3489.543	1990.0228
3491.0369	2010.8098
3492.5308	1965.3112
3494.0247	1942.9723
3495.5186	1934.2935
3497.0122	1952.2479
3498.5061	2036.9519
3500	1989.2756
