100	4287.5029
101.49385	4320.792
102.9877	4385.6416
104.48154	4354.4893
105.9754	4330.7842
107.46925	4349.042
108.9631	4258.8472
110.45694	4186.1484
111.95079	4305.6187
113.44464	4387.6714
114.93849	4330.5903
116.43233	4175.3145
117.92619	4214.356
119.42004	4215.5991
120.91389	4208.1128
122.40773	4197.2466
123.90158	4173.7788
125.39543	4102.9604
126.88928	4194.6797
128.38313	4174.8071
129.87698	4128.5083
131.37082	4138.1855
132.86467	4211.6963
134.35852	4140.8076
135.85237	4185.8608
137.34622	4170.2124
138.84007	4106.4121
140.33392	4107.6748
141.82777	4165.5718
143.32161	4079.1523
144.81546	4101.0415
146.30931	4158.4292
147.80316	4149.6758
149.29701	4071.3313
150.79086	4153.7402
152.28471	4175.3916
153.77856	4145.2627
155.27242	4107.417
156.76625	4111.5586
158.2601	4064.1792
159.75395	4100.6748
161.2478	4158.2798
162.74165	4191.7197
164.2355	4170.8164
165.72935	4091.5164
167.22321	4135.6675
168.71704	4120.2363
170.21089	4114.3652
171.70474	4133.9453
173.19859	4146.9312
174.69244	4295.8677
176.18629	4226.9414
177.68015	4241.7119
179.174	4292.6914
180.66783	4287.5532
182.16168	4285.0938
183.65553	4373.2485
185.14938	4518.437
186.64323	4617.4746
188.13708	4630.7119
189.63094	4591.3447
191.12479	4644.6299
192.61862	4731.9302
194.11247	4759.1948
195.60632	4850.7134
197.10017	5055.2354
198.59402	5168.584
200.08788	5085.7261
201.58173	5011.1006
203.07558	4893.9531
204.56943	4747.4404
206.06326	4626.4814
207.55711	4578.7954
209.05096	4418.8564
210.54482	4374.645
212.03867	4335.9736
213.53252	4255.29
215.02637	4238.3604
216.52022	4280.3325
218.01405	4363.9341
219.5079	4338.1558
221.00175	4302.604
222.49561	4355.9907
223.98946	4309.0439
225.48331	4251.9106
226.97716	4194.3047
228.47101	4146.625
229.96484	4120.5146
231.45869	4120.4653
232.95255	4104.8008
234.4464	4027.9204
235.94025	4036.5178
237.4341	4009.7253
238.92795	3932.5471
240.4218	3993.1907
241.91563	3968.4336
243.40948	3951.1414
244.90334	4001.2124
246.39719	4043.2605
247.89104	4008.3076
249.38489	3971.9692
250.87874	4007.1377
252.37259	3996.5015
253.86644	4010.9207
255.36028	4018.9966
256.85413	3968.5652
258.34799	4034.7002
259.84183	4028.6047
261.33566	4036.7271
262.82953	4076.7983
264.32336	4101.6436
265.81723	4037.0669
267.31107	4037.8943
268.80493	4048.0952
270.29877	4036.0928
271.79263	4016.9773
273.28647	4023.9475
274.7803	4088.7441
276.27417	4055.6125
277.76801	4065.8081
279.26187	4033.8218
280.75571	3995.2791
282.24957	4001.5032
283.74341	4047.0691
285.23724	4122.5181
286.73111	4051.6582
288.22495	4042.6567
289.71881	4054.2776
291.21265	4011.7346
292.70651	4083.9216
294.20035	4040.0569
295.69421	4037.259
297.18805	4033.6294
298.68188	4016.0266
300.17575	3999.6404
301.66959	4017.082
303.16345	3995.2034
304.65729	3977.2832
306.15115	3957.0188
307.64499	3932.0811
309.13885	3909.5491
310.63269	3913.7009
312.12653	3866.1582
313.62039	3829.0752
315.11423	3838.7979
316.60809	3865.9282
318.10193	3843.1042
319.59579	3768.2959
321.08963	3928.9392
322.58347	3827.5613
324.07733	3760.1748
325.57117	3834.1799
327.06503	3893.3452
328.55887	3806.7158
330.05273	3794.4517
331.54657	3821.3689
333.04044	3829.9656
334.53427	3797.4622
336.02811	3749.4719
337.52197	3771.9844
339.01581	3833.9819
340.50967	3899.2795
342.00351	3849.7715
343.49738	3772.6453
344.99121	3857.1489
346.48505	3814.5847
347.97891	3784.2437
349.47275	3755.0234
350.96661	3729.7075
352.46045	3681.8562
353.95432	3598.2839
355.44815	3648.4075
356.94202	3515.4812
358.43585	3490.6726
359.92969	3449.9165
361.42355	3347.5144
362.91739	3249.6487
364.41125	3282.261
365.90509	3213.532
367.39896	3249.0313
368.89279	3274.9563
370.38666	3236.9304
371.88049	3159.043
373.37433	3123.051
374.86819	3142.3184
376.36203	3067.0442
377.8559	3094.1985
379.34973	3148.1714
380.8436	3125.3918
382.33743	3219.9431
383.83127	3140.3333
385.32513	3184.5513
386.81897	3173.3467
388.31284	3108.7908
389.80667	3066.2915
391.30054	3098.0996
392.79437	3128.2964
394.28824	3092.6274
395.78207	3072.1641
397.27591	3050.7771
398.76978	3013.8259
400.26361	2988.1292
401.75748	3014.9968
403.25131	3070.2141
404.74518	3048.165
406.23901	3004.2444
407.73288	2959.5938
409.22672	2897.7664
410.72055	2919.6431
412.21442	2991.96
413.70825	2988.3501
415.20212	2955.2598
416.69595	2940.4634
418.18982	2948.9395
419.68365	2904.3533
421.17749	2911.5215
422.67136	2894.032
424.16519	2879.29
425.65906	2880.4961
427.15289	2886.7266
428.64676	2867.9326
430.14059	2904.1902
431.63446	2902.4243
433.1283	2889.1106
434.62213	2910.1018
436.116	2938.8362
437.60983	2897.8472
439.1037	2847.2656
440.59753	2904.7341
442.0914	2925.4248
443.58524	2947.9949
445.07907	2946.6211
446.57294	2896.9998
448.06677	2896.9297
449.56064	2889.325
451.05447	2891.4856
452.54834	2895.1655
454.04218	2873.053
455.53604	2853.0566
457.02988	2913.7617
458.52371	2922.21
460.01758	2917.6321
461.51141	2909.8774
463.00528	2881.7549
464.49911	2871.4934
465.99298	2902.939
467.48682	2840.3621
468.98068	2861.8635
470.47452	2857.0608
471.96835	2797.459
473.46222	2759.6467
474.95605	2787.8884
476.44992	2826.6323
477.94376	2845.2578
479.43762	2832.3992
480.93146	2845.8533
482.42529	2836.6199
483.91916	2820.4629
485.41299	2835.7339
486.90686	2829.3992
488.4007	2888.7986
489.89456	2924.9797
491.3884	2880.9346
492.88226	2816.8398
494.3761	2785.2766
495.86993	2775.4524
497.3638	2761.8782
498.85764	2645.7825
500.3515	2634.6626
501.84534	2619.3674
503.3392	2569.0261
504.83304	2529.5212
506.3269	2555.9509
507.82074	2534.7163
509.31458	2445.218
510.80844	2391.9243
512.30231	2384.3979
513.79614	2401.4365
515.28998	2424.5679
516.78381	2469.6819
518.27771	2388.0015
519.77155	2421.7217
521.26538	2459.4182
522.75922	2419.1924
524.25305	2350.4883
525.74695	2377.7197
527.24078	2291.6523
528.73462	2392.499
530.22845	2377.23
531.72229	2316.2532
533.21619	2328.6418
534.71002	2403.8362
536.20386	2350.1094
537.69769	2326.2493
539.19159	2379.6472
540.68542	2428.5688
542.17926	2396.7119
543.6731	2367.5935
545.16693	2422.4902
546.66083	2427.0706
548.15466	2386.1196
549.6485	2374.2729
551.14233	2355.749
552.63623	2358.677
554.13007	2381.5093
555.6239	2407.2056
557.11774	2463.093
558.61157	2423.7568
560.10547	2430.3972
561.5993	2471.228
563.09314	2500.9587
564.58698	2481.4717
566.08087	2432.2195
567.57471	2483.7009
569.06854	2441.7527
570.56238	2436.4368
572.05621	2457.1174
573.55011	2453.0449
575.04395	2417.3894
576.53778	2392.1484
578.03162	2399.0061
579.52551	2410.1484
581.01935	2405.5671
582.51318	2436.144
584.00702	2433.5789
585.50085	2392.1365
586.99475	2378.7056
588.48859	2370.9124
589.98242	2328.0085
591.47626	2298.0234
592.97009	2320.1226
594.46399	2330.4053
595.95782	2314.2922
597.45166	2318.4736
598.9455	2337.3855
600.43939	2284.1255
601.93323	2293.4753
603.42706	2286.488
604.9209	2236.3289
606.41473	2201.02
607.90863	2238.8245
609.40247	2256.5886
610.8963	2210.1475
612.39014	2221.9126
613.88403	2289.8813
615.37787	2319.2686
616.8717	2317.4497
618.36554	2355.2935
619.85938	2421.2822
621.35327	2336.9006
622.84711	2348.7991
624.34094	2341.104
625.83478	2321.6594
627.32867	2306.4536
628.82251	2327.9106
630.31635	2416.7966
631.81018	2282.3247
633.30402	2325.156
634.79791	2403.8054
636.29175	2421.1677
637.78558	2386.675
639.27942	2365.6504
640.77332	2392.5759
642.26715	2359.782
643.76099	2326.9817
645.25482	2331.5879
646.74866	2387.8059
648.24255	2380.2505
649.73639	2351.623
651.23022	2420.9785
652.72406	2379.6348
654.21796	2402.1023
655.71179	2392.9546
657.20563	2403.8315
658.69946	2424.5916
660.1933	2444.9966
661.68719	2444.2732
663.18103	2382.9001
664.67487	2348.2947
666.1687	2410.6338
667.66254	2416.562
669.15643	2439.5442
670.65027	2439.4646
672.1441	2416.6804
673.63794	2450.8896
675.13184	2468.7014
676.62567	2399.3186
678.11951	2403.752
679.61334	2382.4165
681.10718	2381.4802
682.60107	2417.5605
684.09491	2433.7615
685.58875	2359.4241
687.08258	2316.9275
688.57648	2365.6926
690.07031	2389.4795
691.56415	2433.5947
693.05798	2447.0498
694.55182	2428.3982
696.04572	2442.1433
697.53955	2397.9807
699.03339	2446.6123
700.52722	2488.4614
702.02112	2468.8394
703.51495	2460.3455
705.00879	2518.4517
706.50262	2578.1709
707.99646	2495.7761
709.49036	2467.9219
710.98419	2541.8296
712.47803	2621.4431
713.97186	2668.3538
715.46576	2668.0996
716.95959	2670.9324
718.45343	2728.5181
719.94727	2785.9529
721.4411	2799.0112
722.935	2790.3308
724.42883	2779.8777
725.92267	2810.5559
727.4165	2807.4873
728.91034	2773.0454
730.40424	2810.5847
731.89807	2890.677
733.39191	2907.2395
734.88574	2790.4194
736.37964	2800.7112
737.87347	2790.9133
739.36731	2772.5435
740.86115	2785.6672
742.35498	2768.2317
743.84888	2734.6448
745.34271	2767.8538
746.83655	2821.6624
748.33038	2808.9304
749.82428	2729.551
751.31812	2691.3638
752.81195	2735.0564
754.30579	2750.24
755.79962	2700.1475
757.29352	2715.0063
758.78735	2710.9377
760.28119	2719.7632
761.77502	2715.8394
763.26892	2697.9551
764.76276	2654.2307
766.25659	2586.8428
767.75043	2720.7131
769.24426	2604.3125
770.73816	2611.0723
772.23199	2649.8809
773.72583	2654.1309
775.21967	2613.3181
776.71356	2578.271
778.2074	2597.407
779.70123	2576.6582
781.19507	2605.6123
782.6889	2657.8159
784.1828	2690.2495
785.67664	2633.853
787.17047	2570.9287
788.66431	2566.9944
790.15814	2563.0732
791.65204	2520.4585
793.14587	2595.1365
794.63971	2574.9016
796.13354	2544.3535
797.62744	2535.2183
799.12128	2569.9617
800.61511	2608.6235
802.10895	2602.4417
803.60278	2613.7451
805.09668	2573.2771
806.59052	2658.186
808.08435	2705.0901
809.57819	2674.5686
811.07208	2682.0996
812.56592	2701.2466
814.05975	2685.2629
815.55359	2771.1267
817.04742	2756.1521
818.54132	2682.7437
820.03516	2781.2236
821.52899	2801.77
823.02283	2814.6738
824.51672	2837.7803
826.01056	2809.4465
827.50439	2741.9736
828.99823	2831.2109
830.49207	2835.6221
831.98596	2902.9565
833.4798	2879.0264
834.97363	2898.7417
836.46747	2919.7344
837.96136	2902.2539
839.4552	2925.3806
840.94904	3054.1125
842.44287	2926.0276
843.93671	2884.8694
845.4306	3018.3459
846.92444	3009.8523
848.41827	3034.7461
849.91211	3088.0254
851.40601	3055.9875
852.89984	2970.3474
854.39368	2970.543
855.88751	2948.4253
857.38135	2898.9861
858.87524	2913.9482
860.36908	2976.022
861.86292	3003.2683
863.35675	2964.0337
864.85059	2909.2205
866.34448	2904.5598
867.83832	2906.0891
869.33215	2840.5244
870.82599	2795.6953
872.31989	2783.947
873.81372	2760.168
875.30756	2765.4131
876.80139	2779.2664
878.29523	2751.7654
879.78912	2733.2053
881.28296	2675.2598
882.77679	2718.7402
884.27063	2711.5029
885.76453	2674.5518
887.25836	2616.2427
888.7522	2570.9929
890.24603	2570.9751
891.73987	2591.2754
893.23376	2552.5149
894.7276	2516.0857
896.22144	2465.4626
897.71527	2485.396
899.20917	2466.3762
900.703	2465.7588
902.19684	2500.8645
903.69067	2515.3286
905.18451	2467.4888
906.67841	2416.4307
908.17224	2412.2441
909.66608	2470.9871
911.15991	2426.2615
912.65381	2451.7803
914.14764	2464.2156
915.64148	2500.0833
917.13531	2533.3748
918.62915	2501.1426
920.12305	2484.8865
921.61688	2439.0273
923.11072	2522.813
924.60455	2555.1323
926.09839	2619.5381
927.59229	2597.8755
929.08612	2607.3293
930.57996	2660.0889
932.07379	2686.0793
933.56769	2717.0544
935.06152	2673.2505
936.55536	2642.8987
938.04919	2738.2068
939.54303	2809.645
941.03693	2775.2458
942.53076	2759.0818
944.0246	2757.9236
945.51843	2731.6321
947.01233	2713.9651
948.50616	2682.8916
950	2766.9307
951.49384	2701.7102
952.98767	2705.4536
954.48157	2616.0403
955.9754	2635.8269
957.46924	2603.8013
958.96307	2540.9207
960.45697	2582.76
961.95081	2529.1465
963.44464	2445.9749
964.93848	2464.7813
966.43231	2381.2969
967.92621	2370.8774
969.42004	2319.3308
970.91388	2238.8989
972.40771	2224.3074
973.90161	2253.7007
975.39545	2227.8447
976.88928	2211.1387
978.38312	2195.8875
979.87695	2120.4487
981.37085	2151.0054
982.86469	2044.0844
984.35852	1942.1237
985.85236	1952.311
987.34619	1969.2817
988.84009	1904.873
990.33392	1864.1117
991.82776	1908.0973
993.32159	1826.3424
994.81549	1856.4581
996.30933	1827.3817
997.80316	1819.6947
999.297	1788.4983
1000.7908	1745.239
1002.2847	1721.8167
1003.7786	1725.2964
1005.2724	1740.3387
1006.7662	1746.4631
1008.2601	1713.167
1009.754	1732.7251
1011.2478	1660.8015
1012.7416	1691.5892
1014.2355	1699.8075
1015.7294	1732.1122
1017.2232	1752.0563
1018.717	1713.0938
1020.2109	1706.7557
1021.7048	1746.1387
1023.1986	1698.4612
1024.6924	1736.3278
1026.1863	1727.7711
1027.6802	1709.2001
1029.174	1705.4851
1030.6678	1720.6206
1032.1617	1720.6261
1033.6555	1706.9719
1035.1494	1716.5082
1036.6432	1731.9894
1038.1371	1759.88
1039.631	1824.0691
1041.1248	1764.3265
1042.6187	1701.766
1044.1124	1732.3776
1045.6063	1743.4937
1047.1002	1731.5986
1048.594	1740.0326
1050.0879	1755.6162
1051.5817	1760.3765
1053.0756	1792.8313
1054.5695	1739.3949
1056.0632	1739.8992
1057.5571	1715.8483
1059.051	1716.4006
1060.5448	1741.8464
1062.0387	1765.4192
1063.5325	1758.5459
1065.0264	1771.2622
1066.5203	1805.9131
1068.014	1719.0447
1069.5079	1775.3719
1071.0017	1765.391
1072.4956	1723.1456
1073.9895	1735.7101
1075.4833	1853.0424
1076.9772	1859.3488
1078.4709	1791.24
1079.9648	1724.3573
1081.4587	1715.9292
1082.9525	1775.8815
1084.4464	1725.7949
1085.9402	1669.5725
1087.4341	1700.4806
1088.928	1712.3739
1090.4218	1723.2855
1091.9156	1723.267
1093.4095	1723.7788
1094.9033	1711.9143
1096.3972	1699
1097.891	1703.2111
1099.3849	1703.5701
1100.8788	1686.4067
1102.3726	1746.5125
1103.8665	1721.9227
1105.3602	1718.3699
1106.8541	1725.8771
1108.348	1670.691
1109.8418	1639.8907
1111.3357	1676.7837
1112.8295	1673.5891
1114.3234	1648.7053
1115.8173	1702.033
1117.311	1699.719
1118.8049	1675.7368
1120.2988	1694.9197
1121.7926	1738.6172
1123.2865	1731.4998
1124.7803	1693.0198
1126.2742	1698.7938
1127.7681	1740.4531
1129.2618	1755.025
1130.7557	1765.3667
1132.2495	1784.4802
1133.7434	1760.9867
1135.2373	1795.0349
1136.7311	1779.7902
1138.225	1734.9899
1139.7188	1772.3682
1141.2126	1784.3163
1142.7065	1780.366
1144.2003	1747.6271
1145.6942	1766.4733
1147.188	1797.198
1148.6819	1834.5573
1150.1758	1869.6625
1151.6696	1794.313
1153.1635	1833.8256
1154.6573	1848.8707
1156.1511	1874.5228
1157.645	1809.5109
1159.1388	1821.6438
1160.6327	1825.2094
1162.1266	1863.9812
1163.6204	1908.1675
1165.1143	1873.7582
1166.608	1823.4832
1168.1019	1858.1217
1169.5958	1883.287
1171.0896	1849.9614
1172.5835	1828.1973
1174.0773	1832.7922
1175.5712	1862.8058
1177.0651	1859.837
1178.5588	1871.5773
1180.0527	1856.0803
1181.5466	1893.226
1183.0404	1886.2168
1184.5343	1830.0775
1186.0281	1836.4729
1187.522	1851.0077
1189.0159	1817.255
1190.5096	1867.2623
1192.0035	1845.186
1193.4973	1801.1591
1194.9912	1781.9956
1196.4851	1837.1185
1197.9789	1840.4618
1199.4728	1817.481
1200.9666	1841.7546
1202.4604	1859.0321
1203.9543	1842.894
1205.4481	1855.6614
1206.942	1863.2911
1208.4359	1817.6158
1209.9297	1817.184
1211.4236	1856.8235
1212.9174	1831.1279
1214.4113	1793.6005
1215.9052	1789.7079
1217.3989	1761.7451
1218.8928	1747.5886
1220.3866	1773.5962
1221.8805	1771.4414
1223.3744	1761.4531
1224.8682	1813.5089
1226.3621	1822.976
1227.8558	1778.9799
1229.3497	1790.9766
1230.8436	1774.3267
1232.3374	1840.1364
1233.8313	1814.5856
1235.3251	1793.6248
1236.819	1816.2897
1238.3129	1830.2147
1239.8066	1837.9266
1241.3005	1846.2944
1242.7944	1864.4065
1244.2882	1865.3208
1245.7821	1813.0001
1247.2759	1813.6586
1248.7698	1819.2642
1250.2637	1843.0914
1251.7574	1900.5815
1253.2513	1829.8604
1254.7451	1828.5969
1256.239	1863.0072
1257.7329	1907.0693
1259.2267	1932.149
1260.7206	1960.9607
1262.2144	1962.8274
1263.7083	1937.734
1265.2021	1915.9415
1266.6959	1894.2107
1268.1898	2003.7859
1269.6837	1973.9282
1271.1775	1962.5601
1272.6714	2007.1726
1274.1652	1967.3376
1275.6591	1961
1277.153	1974.8757
1278.6467	1954.245
1280.1406	1978.7964
1281.6344	2005.5209
1283.1283	2028.1215
1284.6222	2026.7217
1286.116	1999.1544
1287.6099	2028.7529
1289.1036	2007.5079
1290.5975	2059.1287
1292.0914	2075.9004
1293.5852	2048.8835
1295.0791	2048
1296.5729	2036.3333
1298.0668	2076.0989
1299.5607	2075.7434
1301.0544	2053.6162
1302.5483	2039.4978
1304.0422	2033.5225
1305.536	2025.8531
1307.0299	2016.0989
1308.5237	2013.3668
1310.0176	2022.6678
1311.5115	2032.3951
1313.0052	2019.4825
1314.4991	2021.3601
1315.9929	1940.0978
1317.4868	2072.8394
1318.9807	2002.9226
1320.4745	1969.0906
1321.9684	2054.0171
1323.4622	2086.8953
1324.9561	2004.2505
1326.45	1997.4668
1327.9437	2011.9783
1329.4376	1971.9423
1330.9315	1986.323
1332.4253	1987.1107
1333.9192	1955.0372
1335.413	1983.9937
1336.9069	2003.7173
1338.4008	1984.0289
1339.8945	1913.8617
1341.3884	1897.665
1342.8822	1976.1707
1344.3761	1965.8624
1345.87	1934.7854
1347.3638	1924.9999
1348.8577	1975.4377
1350.3514	1999.0601
1351.8453	1977.3251
1353.3392	1983.5081
1354.833	1984.0624
1356.3269	1952.1288
1357.8207	1998.2775
1359.3146	1993.8644
1360.8085	2008.3759
1362.3022	1947.335
1363.7961	1982.0823
1365.29	2060.4153
1366.7838	1964.8241
1368.2777	1986.8169
1369.7715	2009.2137
1371.2654	2006.5051
1372.7593	2033.0902
1374.2531	2074.7046
1375.7469	2044.8665
1377.2407	1999.6726
1378.7346	2002.077
1380.2285	1990.2091
1381.7223	2029.4736
1383.2162	2087.5854
1384.71	1997.764
1386.2039	2025.0631
1387.6978	2026.3447
1389.1915	2081.9194
1390.6854	2065.4011
1392.1793	2177.1487
1393.6731	2137.1016
1395.167	2103.8772
1396.6608	2082.0845
1398.1547	2108.5842
1399.6486	2079.2761
1401.1423	2059.7249
1402.6362	2069.8467
1404.13	2069.0688
1405.6239	2084.5466
1407.1178	2085.8169
1408.6116	2149.1643
1410.1055	2152.6587
1411.5992	2127.6638
1413.0931	2103.6025
1414.587	2023.3087
1416.0808	2096.4968
1417.5747	2096.5581
1419.0685	2131.0125
1420.5624	2068.5913
1422.0563	2068.613
1423.55	2080.7117
1425.0439	2110.2493
1426.5378	2132.6594
1428.0316	2104.6716
1429.5255	2076.7629
1431.0193	2082.0378
1432.5132	2063.7263
1434.0071	2036.7947
1435.5009	2060.4932
1436.9948	2059.1389
1438.4885	2083.2256
1439.9824	2019.4695
1441.4763	2115.4844
1442.9701	2015.8496
1444.464	2046.9897
1445.9578	2023.1885
1447.4517	1957.0471
1448.9456	2023.798
1450.4393	2007.3922
1451.9332	2000.1849
1453.4271	1994.7161
1454.9209	1993.524
1456.4148	1975.5688
1457.9086	1991.1941
1459.4025	1983.4393
1460.8964	1944.5829
1462.3901	1971.0432
1463.884	1979.0837
1465.3778	1989.729
1466.8717	2002.5
1468.3656	2052.4282
1469.8594	2075.3169
1471.3533	1940.299
1472.847	1946.0322
1474.3409	1962.2213
1475.8348	1965.7198
1477.3286	1996.0745
1478.8225	1927.9143
1480.3163	1985.9697
1481.8102	1991.0468
1483.3041	2011.526
1484.7979	1960.0236
1486.2917	1960.9091
1487.7856	1966.5841
1489.2794	2004.3334
1490.7733	2063.7991
1492.2671	2012.4854
1493.761	1971.4904
1495.2549	2022.4561
1496.7487	1996.778
1498.2426	2005.4281
1499.7363	2020.3636
1501.2302	1982.3597
1502.7241	2016.3599
1504.2179	2054.3953
1505.7118	2038.1478
1507.2056	2083.5203
1508.6995	2075.147
1510.1934	2083.4678
1511.6871	2130.7563
1513.181	2099.9963
1514.6749	2158.9302
1516.1687	2143.6943
1517.6626	2110.7991
1519.1564	2118.0681
1520.6503	2143.7012
1522.1442	2160.6694
1523.6379	2175.0081
1525.1318	2196.0042
1526.6256	2207.4253
1528.1195	2193.0344
1529.6134	2185.2747
1531.1072	2226.1516
1532.6011	2247.5693
1534.0948	2234.6868
1535.5887	2234.1387
1537.0826	2263.251
1538.5764	2257.532
1540.0703	2265.4343
1541.5641	2280.7891
1543.058	2310.3469
1544.5519	2287.4895
1546.0457	2330.1418
1547.5396	2360.1987
1549.0334	2343.6709
1550.5272	2313.22
1552.0211	2359.1624
1553.5149	2286.636
1555.0088	2296.9661
1556.5027	2312.2622
1557.9965	2298.2
1559.4904	2314.2773
1560.9841	2322.2769
1562.478	2313.4473
1563.9719	2307.4402
1565.4657	2302.1035
1566.9596	2298.9209
1568.4534	2279
1569.9473	2278.4746
1571.4412	2282.21
1572.9349	2304.7488
1574.4288	2322.686
1575.9227	2306.8149
1577.4165	2280.5183
1578.9104	2257.99
1580.4042	2359.0928
1581.8981	2284.7583
1583.392	2282.0583
1584.8857	2261.1353
1586.3796	2274.7148
1587.8734	2308.0068
1589.3673	2192.5955
1590.8612	2262.2637
1592.355	2240.5002
1593.8489	2226.9167
1595.3427	2224.3208
1596.8365	2190.2446
1598.3304	2196.0913
1599.8242	2203.4556
1601.3181	2208.2676
1602.812	2208.4297
1604.3058	2185.325
1605.7997	2218.2981
1607.2935	2202.3403
1608.7874	2111.4976
1610.2813	2125.6423
1611.775	2089.7305
1613.2689	2097.5242
1614.7627	2068.249
1616.2566	2056.1333
1617.7505	2030.8079
1619.2443	2111.1208
1620.7382	2061.7671
1622.2319	2077.1174
1623.7258	1977.5342
1625.2197	2026.1781
1626.7135	1977.158
1628.2074	2002.3929
1629.7012	1951.8451
1631.1951	1925.1536
1632.689	1869.7134
1634.1827	1911.1241
1635.6766	1888.2617
1637.1705	1870.7676
1638.6643	1850.1959
1640.1582	1901.6932
1641.652	1914.5377
1643.1459	1862.9915
1644.6398	1854.2539
1646.1335	1852.741
1647.6274	1830.9753
1649.1212	1796.1812
1650.6151	1814.5475
1652.109	1814.515
1653.6028	1786.5857
1655.0967	1800.0372
1656.5905	1804.1379
1658.0844	1763.8624
1659.5782	1761.4001
1661.072	1771.624
1662.5659	1742.8352
1664.0598	1737.5131
1665.5536	1722.0879
1667.0475	1689.4166
1668.5413	1674.6904
1670.0352	1711.5668
1671.5291	1701.7885
1673.0228	1657.6307
1674.5167	1641.3864
1676.0105	1653.9064
1677.5044	1651.1045
1678.9983	1640.0149
1680.4921	1670.1226
1681.986	1571.6796
1683.4797	1629.7053
1684.9736	1624.1698
1686.4675	1617.8708
1687.9613	1620.4752
1689.4552	1632.1345
1690.949	1634.3889
1692.4429	1633.972
1693.9368	1603.2538
1695.4305	1600.9657
1696.9244	1528.0433
1698.4183	1589.4666
1699.9121	1598.2715
1701.406	1587.427
1702.8998	1597.012
1704.3937	1594.6835
1705.8876	1567.7932
1707.3813	1606.6996
1708.8752	1577.2906
1710.369	1532.7964
1711.8629	1574.4697
1713.3568	1575.4351
1714.8506	1571.0579
1716.3445	1531.5106
1717.8383	1516.1721
1719.3322	1494.6943
1720.826	1510.3733
1722.3198	1561.2493
1723.8137	1526.6776
1725.3076	1501.141
1726.8014	1534.8599
1728.2953	1558.4192
1729.7891	1513.455
1731.283	1509.5016
1732.7769	1535.7723
1734.2706	1524.001
1735.7645	1532.8201
1737.2583	1510.9015
1738.7522	1530.0276
1740.2461	1542.4562
1741.7399	1528.3739
1743.2338	1516.8171
1744.7275	1517.8375
1746.2214	1535.8749
1747.7153	1539.4404
1749.2091	1525.3636
1750.703	1544.3695
1752.1968	1537.738
1753.6907	1529.3188
1755.1846	1573.3228
1756.6783	1557.0974
1758.1722	1544.957
1759.6661	1539.507
1761.1599	1520.3308
1762.6538	1561.8126
1764.1476	1598.0709
1765.6415	1563.9364
1767.1354	1511.4584
1768.6292	1557.483
1770.123	1590.8339
1771.6168	1538.6869
1773.1107	1585.6786
1774.6046	1572.515
1776.0984	1565.8546
1777.5923	1589.8873
1779.0861	1551.8113
1780.58	1573.6505
1782.0739	1595.6594
1783.5676	1572.6992
1785.0615	1519.1268
1786.5554	1516.1012
1788.0492	1545.7393
1789.5431	1516.1252
1791.0369	1529.6208
1792.5308	1542.4985
1794.0247	1540.2179
1795.5184	1541.8445
1797.0123	1592.0615
1798.5061	1529.8673
1800	1533.7356
1801.4939	1543.7581
1802.9877	1506.7894
1804.4816	1570.6696
1805.9753	1523.7871
1807.4692	1510.9022
1808.9631	1511.2316
1810.4569	1502.6812
1811.9508	1488.8333
1813.4446	1526.769
1814.9385	1485.7349
1816.4324	1525.8474
1817.9261	1549.5997
1819.42	1501.4474
1820.9139	1504.4218
1822.4077	1535.3663
1823.9016	1477.2917
1825.3954	1532.0565
1826.8893	1460.3722
1828.3832	1457.9742
1829.877	1478.4429
1831.3708	1452.9924
1832.8646	1452.4048
1834.3585	1453.2672
1835.8524	1491.3651
1837.3462	1511.2461
1838.8401	1485.3311
1840.3339	1481.0393
1841.8278	1478.0117
1843.3217	1434.36
1844.8154	1377.2373
1846.3093	1393.0232
1847.8032	1404.089
1849.297	1400.4384
1850.7909	1427.0771
1852.2847	1449.4508
1853.7786	1459.0862
1855.2725	1454.9703
1856.7662	1426.29
1858.2601	1411.4933
1859.7539	1425.3945
1861.2478	1411.1512
1862.7417	1439.8318
1864.2355	1463.3693
1865.7294	1450.3724
1867.2231	1498.7443
1868.717	1476.6044
1870.2109	1417.1354
1871.7047	1457.8108
1873.1986	1468.6543
1874.6924	1458.3257
1876.1863	1469.6865
1877.6802	1459.3867
1879.174	1431.275
1880.6678	1469.8092
1882.1617	1488.3699
1883.6555	1484.5787
1885.1494	1498.7728
1886.6432	1512.4492
1888.1371	1513.697
1889.631	1498.4498
1891.1248	1491.8998
1892.6187	1471.4697
1894.1124	1472.3945
1895.6063	1486.8026
1897.1002	1513.616
1898.594	1504.562
1900.0879	1525.6487
1901.5817	1527.5592
1903.0756	1499.6677
1904.5695	1520.329
1906.0632	1527.3044
1907.5571	1500.8291
1909.051	1489.7549
1910.5448	1486.0815
1912.0387	1496.5709
1913.5325	1542.1826
1915.0264	1563.1945
1916.5203	1532.9668
1918.014	1495.5331
1919.5079	1492.9977
1921.0017	1485
1922.4956	1484.2236
1923.9895	1492.7488
1925.4833	1463.6295
1926.9772	1419.4928
1928.4709	1452.2314
1929.9648	1471.4409
1931.4587	1513.4211
1932.9525	1506.0271
1934.4464	1483.437
1935.9402	1457.8491
1937.4341	1449.2037
1938.928	1452.1454
1940.4218	1429.8516
1941.9156	1432.2898
1943.4095	1422.712
1944.9033	1403.1694
1946.3972	1389.8916
1947.891	1386.3894
1949.3849	1378.0168
1950.8788	1379.3101
1952.3726	1395.4808
1953.8665	1367.7162
1955.3602	1394.6486
1956.8541	1422.4226
1958.348	1394
1959.8418	1376.6179
1961.3357	1356.4819
1962.8295	1370.3441
1964.3234	1373.5809
1965.8173	1375.6339
1967.311	1365.1211
1968.8049	1336.9011
1970.2988	1342.0548
1971.7926	1371.4662
1973.2865	1340.141
1974.7803	1326.3265
1976.2742	1351.1306
1977.7681	1354.6412
1979.2618	1326.0537
1980.7557	1349.9578
1982.2495	1310.3069
1983.7434	1345.5177
1985.2373	1364.2457
1986.7311	1345.7648
1988.225	1349.2577
1989.7188	1363.3489
1991.2126	1336.4501
1992.7065	1369.9071
1994.2003	1370.3073
1995.6942	1394.4094
1997.188	1348.0646
1998.6819	1344.8051
2000.1758	1359.4513
2001.6696	1371.8402
2003.1635	1391.9161
2004.6573	1361.8494
2006.1511	1340.0981
2007.645	1376.4945
2009.1388	1368.8077
2010.6327	1381.6315
2012.1266	1432.3004
2013.6204	1422.1262
2015.1143	1364.1071
2016.608	1360.4297
2018.1019	1326.804
2019.5958	1418.9525
2021.0896	1406.6558
2022.5835	1443.6337
2024.0773	1364.6716
2025.5712	1411.5179
2027.0651	1401.1636
2028.5588	1455.8385
2030.0527	1393.9955
2031.5466	1449.4985
2033.0404	1461.0723
2034.5343	1401.222
2036.0281	1366.2437
2037.522	1425.9022
2039.0159	1430.9352
2040.5096	1469.292
2042.0035	1423.6071
2043.4973	1450.873
2044.9912	1423.7231
2046.4851	1419.5973
2047.9789	1427.3036
2049.4727	1449.2095
2050.9666	1492.8285
2052.4604	1460.8008
2053.9543	1469.26
2055.4482	1468.709
2056.9419	1475.3618
2058.4358	1473.7336
2059.9297	1459.4185
2061.4236	1449.4241
2062.9175	1445.1376
2064.4111	1409.7087
2065.905	1447.899
2067.3989	1444.0002
2068.8928	1460.8256
2070.3867	1481.2507
2071.8804	1433.1382
2073.3743	1401.8796
2074.8682	1417.6228
2076.3621	1425.7339
2077.856	1399.2094
2079.3499	1403.1016
2080.8435	1452.3159
2082.3374	1368.646
2083.8313	1401.5764
2085.3252	1483.9659
2086.8191	1434.9469
2088.3127	1412.7675
2089.8066	1368.7177
2091.3005	1398.4984
2092.7944	1385.3854
2094.2883	1363.7831
2095.782	1376.9324
2097.2759	1346.2925
2098.7698	1333.6677
2100.2637	1355.97
2101.7576	1349.1426
2103.2512	1362.954
2104.7451	1356.9039
2106.239	1354.4612
2107.7329	1358.9512
2109.2268	1329.0083
2110.7205	1358.5251
2112.2144	1327.0376
2113.7083	1300.8798
2115.2021	1382.2318
2116.696	1346.7172
2118.1897	1340.2428
2119.6836	1325.0736
2121.1775	1328.1262
2122.6714	1301.5245
2124.1653	1310.5103
2125.6589	1283.4023
2127.1528	1301.1967
2128.6467	1313.4561
2130.1406	1287.8632
2131.6345	1282.2357
2133.1282	1305.7672
2134.6221	1316.7111
2136.116	1332.4333
2137.6099	1328.8624
2139.1038	1292.9518
2140.5977	1303.8131
2142.0913	1307.0869
2143.5852	1313.7473
2145.0791	1333.3672
2146.573	1353.3859
2148.0669	1320.0129
2149.5605	1346.9934
2151.0544	1313.1724
2152.5483	1342.597
2154.0422	1301.5875
2155.5361	1393.6821
2157.0298	1340.5435
2158.5237	1329.1289
2160.0176	1388.0376
2161.5115	1338.004
2163.0054	1331.6287
2164.499	1335.3802
2165.9929	1338.7852
2167.4868	1357.8243
2168.9807	1392.3934
2170.4746	1380.8422
2171.9683	1359.6686
2173.4622	1362.8544
2174.9561	1376.6288
2176.45	1352.2118
2177.9438	1366.8557
2179.4375	1439.8029
2180.9314	1420.6575
2182.4253	1374.967
2183.9192	1395.038
2185.4131	1393.3026
2186.9067	1394.6378
2188.4006	1452.5455
2189.8945	1434.72
2191.3884	1438.6348
2192.8823	1447.9465
2194.376	1502.1664
2195.8699	1495.1566
2197.3638	1470.0035
2198.8577	1412.1704
2200.3516	1447.8245
2201.8455	1471.8645
2203.3391	1483.1097
2204.833	1477.5043
2206.3269	1442.2288
2207.8208	1463.2061
2209.3147	1496.7489
2210.8083	1484.4127
2212.3022	1467.8134
2213.7961	1439.8324
2215.29	1464.839
2216.7839	1444.4268
2218.2776	1462.8788
2219.7715	1479.002
2221.2654	1470.0569
2222.7593	1440.715
2224.2532	1419.3009
2225.7468	1458.8357
2227.2407	1469.0686
2228.7346	1449.7692
2230.2285	1454.8955
2231.7224	1453.536
2233.2161	1440.2966
2234.71	1420.9672
2236.2039	1399.1671
2237.6978	1427.9222
2239.1917	1446.5076
2240.6853	1364.4529
2242.1792	1416.7548
2243.6731	1368.3149
2245.167	1388.9802
2246.6609	1393.9739
2248.1545	1388.7657
2249.6484	1398.3124
2251.1423	1359.8632
2252.6362	1371.7336
2254.1301	1419.7524
2255.624	1377.087
2257.1177	1339.0138
2258.6116	1363.6835
2260.1055	1329.5454
2261.5994	1329.6761
2263.0933	1362.8931
2264.5869	1336.786
2266.0808	1336.1393
2267.5747	1381.3047
2269.0686	1344.3009
2270.5625	1303.0078
2272.0562	1365.2545
2273.55	1374.3925
2275.0439	1302.1938
2276.5378	1331.6427
2278.0317	1332.6912
2279.5254	1331.4493
2281.0193	1325.9153
2282.5132	1266.9109
2284.0071	1298.7013
2285.501	1300.6234
2286.9946	1305.3068
2288.4885	1311.2966
2289.9824	1278.3948
2291.4763	1307.2399
2292.9702	1258.072
2294.4639	1231.6279
2295.9578	1253.7096
2297.4517	1267.7997
2298.9456	1280.3014
2300.4395	1300.8604
2301.9331	1301.5081
2303.427	1350.5573
2304.9209	1293.5094
2306.4148	1320.9873
2307.9087	1317.5195
2309.4023	1311.2444
2310.8962	1348.2932
2312.3901	1326.3114
2313.884	1294.1685
2315.3779	1312.9487
2316.8718	1322.8551
2318.3655	1305.1333
2319.8594	1337.8754
2321.3533	1339.6213
2322.8472	1297.2457
2324.3411	1318.5886
2325.8347	1372.8306
2327.3286	1294.4644
2328.8225	1303.911
2330.3164	1331.1299
2331.8103	1356.1312
2333.304	1374.0613
2334.7979	1335.5695
2336.2917	1342.6945
2337.7856	1298.8472
2339.2795	1330.62
2340.7732	1326.088
2342.2671	1345.5297
2343.761	1363.9288
2345.2549	1351.8326
2346.7488	1364.9116
2348.2424	1331.8912
2349.7363	1378.4192
2351.2302	1356.8585
2352.7241	1409.807
2354.218	1345.5735
2355.7117	1353.9159
2357.2056	1344.5502
2358.6995	1328.0663
2360.1934	1356.0927
2361.6873	1383.5614
2363.1809	1384.2821
2364.6748	1390.6858
2366.1687	1393.0432
2367.6626	1403.2941
2369.1565	1391.3708
2370.6501	1379.1451
2372.144	1382.2458
2373.6379	1393.0995
2375.1318	1388.8561
2376.6257	1404.0911
2378.1196	1415.1731
2379.6133	1452.8369
2381.1072	1385.3652
2382.6011	1420.6644
2384.095	1357.3557
2385.5889	1404.5186
2387.0825	1417.5389
2388.5764	1454.7728
2390.0703	1447.3376
2391.5642	1406.0992
2393.0581	1415.1891
2394.5518	1418.4716
2396.0457	1439.5375
2397.5396	1439.2219
2399.0334	1389.8356
2400.5273	1377
2402.021	1399.8613
2403.5149	1447.0822
2405.0088	1405
2406.5027	1396.7761
2407.9966	1344.1492
2409.4902	1417.2482
2410.9841	1420.7484
2412.478	1397.0278
2413.9719	1419.876
2415.4658	1439.166
2416.9595	1427.2872
2418.4534	1413.2926
2419.9473	1420.1136
2421.4412	1420.2278
2422.9351	1382.2224
2424.4287	1386.7867
2425.9226	1444.5634
2427.4165	1414.2275
2428.9104	1465.4395
2430.4043	1459.5751
2431.8979	1395.6122
2433.3918	1448.3817
2434.8857	1437.6132
2436.3796	1407.0022
2437.8735	1393.6021
2439.3674	1407.4786
2440.8611	1395.7942
2442.355	1383.4038
2443.8489	1401.0737
2445.3428	1410.2483
2446.8367	1405.3308
2448.3303	1448.5228
2449.8242	1422.783
2451.3181	1447.8704
2452.812	1434.4976
2454.3059	1445.533
2455.7996	1418.8109
2457.2935	1431.7578
2458.7874	1424.1758
2460.2813	1411.8872
2461.7751	1410.6033
2463.2688	1402.0187
2464.7627	1405.0957
2466.2566	1452.0023
2467.7505	1422.6144
2469.2444	1439.2
2470.738	1411.3354
2472.2319	1393.6244
2473.7258	1370.676
2475.2197	1375.1769
2476.7136	1431.4106
2478.2073	1451.6814
2479.7012	1474.9655
2481.1951	1432.5531
2482.689	1390.9412
2484.1829	1346.0607
2485.6765	1399.1476
2487.1704	1351.3527
2488.6643	1411.1826
2490.1582	1434.4919
2491.6521	1427.7128
2493.1458	1401.4598
2494.6396	1365.8223
2496.1335	1414.1842
2497.6274	1394.2928
2499.1213	1428.5292
2500.6152	1403.9745
2502.1089	1403.126
2503.6028	1395.0546
2505.0967	1361.3895
2506.5906	1443.6688
2508.0845	1463.0355
2509.5781	1369.998
2511.072	1390.5166
2512.5659	1406.1572
2514.0598	1399.6582
2515.5537	1385.385
2517.0474	1436.9956
2518.5413	1404.4149
2520.0352	1415.295
2521.5291	1407.5679
2523.0229	1442.99
2524.5166	1435.8055
2526.0105	1399.4696
2527.5044	1387.8468
2528.9983	1439.5475
2530.4922	1443.2971
2531.9858	1461.4727
2533.4797	1459.9868
2534.9736	1455.402
2536.4675	1425.355
2537.9614	1451.1993
2539.4551	1397.6078
2540.949	1430.3661
2542.4429	1404.4106
2543.9368	1434.4388
2545.4307	1445.8042
2546.9243	1471.9127
2548.4182	1419.7373
2549.9121	1456.0265
2551.406	1447.6858
2552.8999	1469.4933
2554.3936	1468.2629
2555.8875	1444.3987
2557.3813	1477.2959
2558.8752	1417.4208
2560.3691	1453.8467
2561.863	1435.8018
2563.3567	1417.9796
2564.8506	1429.097
2566.3445	1478.775
2567.8384	1485.2328
2569.3323	1477.516
2570.8259	1469.5023
2572.3198	1463.2711
2573.8137	1448.0848
2575.3076	1469.7755
2576.8015	1545.8049
2578.2952	1473.8975
2579.7891	1464.0013
2581.283	1489.5266
2582.7769	1473.8784
2584.2708	1447.6624
2585.7644	1478.2197
2587.2583	1465.7102
2588.7522	1422.2296
2590.2461	1476.8495
2591.74	1477.707
2593.2336	1488.49
2594.7275	1466.8177
2596.2214	1500.1677
2597.7153	1522.7473
2599.2092	1437.5895
2600.7029	1484.0236
2602.1968	1482.8008
2603.6907	1490.9255
2605.1846	1475.4105
2606.6785	1472.6528
2608.1721	1483.5043
2609.666	1522.553
2611.1599	1465.0537
2612.6538	1442.2137
2614.1477	1485.0963
2615.6414	1481.5741
2617.1353	1531.2976
2618.6292	1497.0542
2620.123	1484.2389
2621.6169	1522.6835
2623.1108	1509.495
2624.6045	1504.9171
2626.0984	1513.1068
2627.5923	1523.7037
2629.0862	1469.0182
2630.5801	1544.4736
2632.0737	1523.1405
2633.5676	1511.5695
2635.0615	1526.7844
2636.5554	1549.6073
2638.0493	1532.2329
2639.543	1562.9006
2641.0369	1556.1058
2642.5308	1564.5182
2644.0247	1503.02
2645.5186	1474.1326
2647.0122	1527.0812
2648.5061	1538.7968
2650	1514.4956
2651.4939	1523.6357
2652.9878	1523.7994
2654.4814	1558.0844
2655.9753	1518.5485
2657.4692	1498.2552
2658.9631	1535.9701
2660.457	1538.9642
2661.9507	1497.1603
2663.4446	1538.652
2664.9385	1540.5651
2666.4324	1494.9636
2667.9263	1532.1428
2669.4199	1543.9485
2670.9138	1481.8573
2672.4077	1602.2538
2673.9016	1569.7662
2675.3955	1544.162
2676.8892	1552.1997
2678.3831	1530.3331
2679.877	1524.2804
2681.3708	1535.8569
2682.8647	1552.6017
2684.3586	1527.0269
2685.8523	1525.3502
2687.3462	1525.3311
2688.8401	1554.0647
2690.334	1494.4583
2691.8279	1486.4999
2693.3215	1526.4304
2694.8154	1541.7343
2696.3093	1514.1323
2697.8032	1507.9141
2699.2971	1533.0929
2700.7908	1527.5305
2702.2847	1520.9836
2703.7786	1558.6383
2705.2725	1544.8514
2706.7664	1572.2025
2708.26	1556.9299
2709.7539	1560.2451
2711.2478	1548.942
2712.7417	1584.4137
2714.2356	1551.3439
2715.7292	1521.8389
2717.2231	1558.3141
2718.717	1597.8555
2720.2109	1548.3314
2721.7048	1567.2637
2723.1985	1524.2174
2724.6924	1517.3997
2726.1863	1569.8596
2727.6802	1583.4813
2729.1741	1537.4385
2730.6677	1513.7804
2732.1616	1555.7712
2733.6555	1557.5408
2735.1494	1548.2885
2736.6433	1548.4061
2738.137	1588.861
2739.6309	1547.92
2741.1248	1563.319
2742.6187	1617.2916
2744.1125	1555.6571
2745.6064	1559.7578
2747.1001	1575.1337
2748.594	1566.6868
2750.0879	1542.4103
2751.5818	1610.6858
2753.0757	1552.9834
2754.5693	1582.6245
2756.0632	1595.2336
2757.5571	1544.2252
2759.051	1547.1689
2760.5449	1565.7228
2762.0386	1594.1346
2763.5325	1575.8119
2765.0264	1551.5739
2766.5203	1532.9651
2768.0142	1525.9375
2769.5078	1567.0339
2771.0017	1592.0688
2772.4956	1583.0175
2773.9895	1561.7255
2775.4834	1567.3019
2776.9771	1556.9698
2778.4709	1569.905
2779.9648	1576.0793
2781.4587	1552.8068
2782.9526	1583.2668
2784.4463	1567.109
2785.9402	1564.666
2787.4341	1570.049
2788.928	1564.088
2790.4219	1549.5048
2791.9155	1535.2085
2793.4094	1581.443
2794.9033	1571.3108
2796.3972	1524.3245
2797.8911	1532.7905
2799.3848	1572.3086
2800.8787	1550.108
2802.3726	1559.6859
2803.8665	1547.4142
2805.3604	1503.7516
2806.8542	1562.371
2808.3479	1538.9547
2809.8418	1561.0012
2811.3357	1534.818
2812.8296	1575.0217
2814.3235	1546.4346
2815.8171	1559.949
2817.311	1499.2521
2818.8049	1527.2992
2820.2988	1535.8024
2821.7927	1545.2726
2823.2864	1573.7802
2824.7803	1576.5399
2826.2742	1515.0598
2827.7681	1527.754
2829.262	1542.965
2830.7556	1538.4067
2832.2495	1557.774
2833.7434	1535.442
2835.2373	1518.0178
2836.7312	1539.0869
2838.2249	1545.0052
2839.7188	1516.7433
2841.2126	1546.8541
2842.7065	1556.4552
2844.2004	1517.0333
2845.6941	1535.2955
2847.188	1536.6693
2848.6819	1536.7091
2850.1758	1512.298
2851.6697	1559.6581
2853.1633	1547.3893
2854.6572	1510.864
2856.1511	1532.8451
2857.645	1546.506
2859.1389	1513.8906
2860.6326	1559.1498
2862.1265	1563.6941
2863.6204	1556.7336
2865.1143	1543.1028
2866.6082	1526.5546
2868.1021	1549.9685
2869.5957	1537.8728
2871.0896	1551.6981
2872.5835	1527.448
2874.0774	1523.7792
2875.5713	1504.9103
2877.0649	1524.7345
2878.5588	1507.1144
2880.0527	1517.4575
2881.5466	1555.6829
2883.0405	1540.1887
2884.5342	1494.4496
2886.0281	1526.3092
2887.522	1475.1116
2889.0159	1524.3558
2890.5098	1491.2012
2892.0034	1499.5502
2893.4973	1541.749
2894.9912	1533.9525
2896.4851	1539.8599
2897.979	1541.4725
2899.4727	1510.7473
2900.9666	1517.1217
2902.4604	1528.1721
2903.9543	1519.0015
2905.4482	1519.1604
2906.9419	1535.9131
2908.4358	1567.9376
2909.9297	1522.0586
2911.4236	1566.8826
2912.9175	1556.8888
2914.4111	1525.8242
2915.905	1539.1708
2917.3989	1508.3121
2918.8928	1522.1592
2920.3867	1517.9357
2921.8804	1522.4358
2923.3743	1490.1289
2924.8682	1487.0858
2926.3621	1515.8744
2927.856	1504.4991
2929.3499	1495.7295
2930.8435	1543.2517
2932.3374	1481.2993
2933.8313	1488.7656
2935.3252	1558.481
2936.8191	1530.3042
2938.3127	1535.077
2939.8066	1497.084
2941.3005	1468.1741
2942.7944	1534.1074
2944.2883	1555.0222
2945.782	1519.8405
2947.2759	1529.594
2948.7698	1510.9587
2950.2637	1552.1814
2951.7576	1568.9596
2953.2512	1512.5187
2954.7451	1553.5699
2956.239	1500.0623
2957.7329	1523.0676
2959.2268	1543.1118
2960.7205	1526.4244
2962.2144	1536.9473
2963.7083	1516.1711
2965.2021	1500.6495
2966.696	1559.1718
2968.1897	1534.3091
2969.6836	1571.7361
2971.1775	1537.9429
2972.6714	1521.7119
2974.1653	1530.4479
2975.6589	1490.9552
2977.1528	1504.3142
2978.6467	1544.1252
2980.1406	1527.7308
2981.6345	1505.1469
2983.1282	1523.4258
2984.6221	1541.8204
2986.116	1500.339
2987.6099	1501.062
2989.1038	1518.5635
2990.5977	1548.3351
2992.0913	1559.5853
2993.5852	1551.0895
2995.0791	1588.037
2996.573	1518.0397
2998.0669	1525.5835
2999.5605	1501.088
3001.0544	1533.29
3002.5483	1528.5359
3004.0422	1532.0829
3005.5361	1521.2909
3007.0298	1526.1794
3008.5237	1484.681
3010.0176	1520.8518
3011.5115	1530.7781
3013.0054	1568.0073
3014.499	1506.901
3015.9929	1489.4747
3017.4868	1538.8353
3018.9807	1521.5778
3020.4746	1509.6056
3021.9683	1515.2981
3023.4622	1543.4039
3024.9561	1523.9667
3026.45	1571.0695
3027.9438	1538.3655
3029.4375	1560.2164
3030.9314	1539.0231
3032.4253	1554.1971
3033.9192	1505.4199
3035.4131	1534.8932
3036.9067	1513.2679
3038.4006	1542.4745
3039.8945	1565.2021
3041.3884	1529.1506
3042.8823	1516.0264
3044.376	1499.3972
3045.8699	1522.4937
3047.3638	1502.457
3048.8577	1566.593
3050.3516	1544.8718
3051.8455	1499.0126
3053.3391	1489.3049
3054.833	1524.5714
3056.3269	1455.9711
3057.8208	1460.4564
3059.3147	1483.7744
3060.8083	1479.9297
3062.3022	1517.3031
3063.7961	1558.2593
3065.29	1476.9664
3066.7839	1508.1439
3068.2776	1518.9683
3069.7715	1459.3706
3071.2654	1505.1793
3072.7593	1504.1378
3074.2532	1584.1917
3075.7468	1554.2036
3077.2407	1515.8296
3078.7346	1496.162
3080.2285	1526.4182
3081.7224	1493.0851
3083.2161	1536.3168
3084.71	1566.9819
3086.2039	1437.0426
3087.6978	1480.9926
3089.1917	1498.741
3090.6853	1514.6903
3092.1792	1513.2739
3093.6731	1514.7258
3095.167	1481.4169
3096.6609	1523.6146
3098.1545	1513.7482
3099.6484	1523.9568
3101.1423	1499.723
3102.6362	1471.9767
3104.1301	1488.6869
3105.624	1482.5011
3107.1177	1516.9672
3108.6116	1479.7528
3110.1055	1471.2715
3111.5994	1528.6323
3113.0933	1493.335
3114.5869	1523.8696
3116.0808	1467.1201
3117.5747	1452.2749
3119.0686	1477.8575
3120.5625	1453.9774
3122.0562	1486.2249
3123.55	1461.0438
3125.0439	1476.885
3126.5378	1502.0219
3128.0317	1477.0175
3129.5254	1457.4954
3131.0193	1518.0427
3132.5132	1529.9851
3134.0071	1467.7164
3135.501	1476.4303
3136.9946	1494.4441
3138.4885	1501.1489
3139.9824	1520.3506
3141.4763	1506.2434
3142.9702	1497.9965
3144.4639	1482.2128
3145.9578	1506.0623
3147.4517	1524.0597
3148.9456	1458.3877
3150.4395	1453.0353
3151.9331	1474.9708
3153.427	1477.4128
3154.9209	1498.1897
3156.4148	1487.0315
3157.9087	1538.585
3159.4023	1493.624
3160.8962	1449.3521
3162.3901	1430.11
3163.884	1486.6653
3165.3779	1427.1665
3166.8718	1509.7999
3168.3655	1470.6792
3169.8594	1493.2899
3171.3533	1504.4719
3172.8472	1474.0642
3174.3411	1492.3038
3175.8347	1473.0945
3177.3286	1483.8359
3178.8225	1485.2566
3180.3164	1507.0654
3181.8103	1491.9546
3183.304	1494.7284
3184.7979	1502.6965
3186.2917	1480.384
3187.7856	1456.2323
3189.2795	1497.2256
3190.7732	1491.7504
3192.2671	1482.1249
3193.761	1438.2991
3195.2549	1404.2285
3196.7488	1460.9556
3198.2424	1418.3529
3199.7363	1461.0762
3201.2302	1442.8177
3202.7241	1423.3601
3204.218	1488.9257
3205.7117	1527.9498
3207.2056	1480.9648
3208.6995	1432.2043
3210.1934	1439.2776
3211.6873	1445.2446
3213.1809	1439.8903
3214.6748	1484.4141
3216.1687	1456.741
3217.6626	1434.2332
3219.1565	1419.3641
3220.6501	1447.2555
3222.144	1415.707
3223.6379	1420.3708
3225.1318	1397.0079
3226.6257	1413.9286
3228.1196	1431.7148
3229.6133	1442.4548
3231.1072	1418
3232.6011	1433.0769
3234.095	1460.5638
3235.5889	1424.9484
3237.0825	1405.1831
3238.5764	1381.4907
3240.0703	1457.2716
3241.5642	1415.1312
3243.0581	1427.9399
3244.5518	1404.4752
3246.0457	1418.4015
3247.5396	1444.6948
3249.0334	1426.4783
3250.5273	1449.7563
3252.021	1429.1227
3253.5149	1452.0291
3255.0088	1443.8903
3256.5027	1463.5015
3257.9966	1430.0406
3259.4902	1414.0153
3260.9841	1408.4243
3262.478	1434.3865
3263.9719	1368.184
3265.4658	1409.0162
3266.9595	1376.5122
3268.4534	1438.0259
3269.9473	1447.5261
3271.4412	1454.4182
3272.9351	1441.4926
3274.4287	1406.5245
3275.9226	1433.0007
3277.4165	1391.9094
3278.9104	1447.4978
3280.4043	1388.4341
3281.8979	1370.4664
3283.3918	1390.8069
3284.8857	1387.2162
3286.3796	1407.5597
3287.8735	1387.9404
3289.3674	1438.7086
3290.8611	1403.1113
3292.355	1431.3584
3293.8489	1461.4205
3295.3428	1392.0093
3296.8367	1367.4034
3298.3303	1390.7369
3299.8242	1389.6761
3301.3181	1315.0381
3302.812	1385.2742
3304.3059	1369.218
3305.7996	1333.6689
3307.2935	1352.8873
3308.7874	1417.2861
3310.2813	1336.2122
3311.7751	1398.4656
3313.2688	1380.2893
3314.7627	1399.6509
3316.2566	1412.6058
3317.7505	1327.5751
3319.2444	1356.1947
3320.738	1372.9999
3322.2319	1387.2887
3323.7258	1300.7051
3325.2197	1353.6632
3326.7136	1384.2108
3328.2073	1377.1342
3329.7012	1364.2485
3331.1951	1385.8923
3332.689	1362.8104
3334.1829	1416.2758
3335.6765	1391.2251
3337.1704	1377.2146
3338.6643	1354.9196
3340.1582	1337.7808
3341.6521	1343.8771
3343.1458	1364.1918
3344.6396	1356.6816
3346.1335	1330.8177
3347.6274	1361.127
3349.1213	1348.6726
3350.6152	1308.2072
3352.1089	1351.8956
3353.6028	1307.5577
3355.0967	1356.9008
3356.5906	1369.2141
3358.0845	1376.0813
3359.5781	1357.6709
3361.072	1332.8889
3362.5659	1378.1089
3364.0598	1349.9961
3365.5537	1378.7336
3367.0474	1308.902
3368.5413	1349.3047
3370.0352	1323.4041
3371.5291	1384.4962
3373.0229	1373.442
3374.5166	1354.8994
3376.0105	1355.8073
3377.5044	1347.7026
3378.9983	1349.9597
3380.4922	1352.3759
3381.9858	1345.955
3383.4797	1356.3833
3384.9736	1372.4438
3386.4675	1341.0585
3387.9614	1339.2759
3389.4551	1313.8381
3390.949	1335.3743
3392.4429	1365.4855
3393.9368	1350.3818
3395.4307	1364.3181
3396.9243	1311.4661
3398.4182	1325.7462
3399.9121	1344.2316
3401.406	1292.2303
3402.8999	1335.7856
3404.3936	1371.8596
3405.8875	1372.0228
3407.3813	1367.8962
3408.8752	1340.4949
3410.3691	1355.9269
3411.863	1328.3408
3413.3567	1386.9559
3414.8506	1305.4581
3416.3445	1303.0232
3417.8384	1345.3044
3419.3323	1302.6589
3420.8259	1351.6591
3422.3198	1333.2531
3423.8137	1324.6252
3425.3076	1322.2744
3426.8015	1319.1488
3428.2952	1320.1674
3429.7891	1337.4506
3431.283	1371.6025
3432.7769	1328.7639
3434.2708	1311.3652
3435.7644	1327.8535
3437.2583	1323.546
3438.7522	1300.6816
3440.2461	1311.5837
3441.74	1305.4874
3443.2336	1333.5582
3444.7275	1348.7037
3446.2214	1328.1605
3447.7153	1307.3895
3449.2092	1332.7869
3450.7029	1364.1232
3452.1968	1343.9172
3453.6907	1332.7947
3455.1846	1313.1757
3456.6785	1332.8357
3458.1721	1336.2603
3459.666	1298.1793
3461.1599	1314.1493
3462.6538	1304.0695
3464.1477	1314.9012
3465.6414	1266.4099
3467.1353	1253.2487
3468.6292	1308.3413
3470.123	1284.8094
3471.6169	1293.1993
3473.1108	1279.9722
3474.6045	1323.8287
3476.0984	1366.8739
3477.5923	1338.8
3479.0862	1296.0233
3480.5801	1311.8352
3482.0737	1313.4377
3483.5676	1325.3778
3485.0615	1401.0012
3486.5554	1356.7567
3488.0493	1330.1313
3489.543	1315.5807
3491.0369	1299.2622
3492.5308	1347.4897
3494.0247	1296.8567
3495.5186	1324.1875
3497.0122	1325.2357
3498.5061	1359.972
3500	1310.8151
