100	3743.4915
101.49385	3784.0881
102.9877	3804.8782
104.48154	3734.0098
105.9754	3675.3752
107.46925	3678.1682
108.9631	3645.666
110.45694	3726.9966
111.95079	3729.123
113.44464	3696.3267
114.93849	3675.7551
116.43233	3701.1443
117.92619	3703.5847
119.42004	3674.9714
120.91389	3735.2834
122.40773	3796.043
123.90158	3751.9482
125.39543	3716.9458
126.88928	3676.7178
128.38313	3662.3203
129.87698	3616.8296
131.37082	3552.8203
132.86467	3595.2444
134.35852	3652.281
135.85237	3641.543
137.34622	3651.8208
138.84007	3664.593
140.33392	3631.5488
141.82777	3759.5745
143.32161	3602.5242
144.81546	3557.2808
146.30931	3561.1399
147.80316	3520.6899
149.29701	3498.6555
150.79086	3574.0283
152.28471	3526.4751
153.77856	3536.1025
155.27242	3623.9531
156.76625	3676.0173
158.2601	3703.7915
159.75395	3719.092
161.2478	3703.0737
162.74165	3699.0742
164.2355	3730.6841
165.72935	3723.3264
167.22321	3760.5085
168.71704	3681.1135
170.21089	3692.8374
171.70474	3811.9111
173.19859	3875.8372
174.69244	3918.3909
176.18629	3954.7634
177.68015	3997.134
179.174	4097.563
180.66783	4222.3755
182.16168	4097.7476
183.65553	4143.4277
185.14938	4339.1553
186.64323	4489.4185
188.13708	4579.5586
189.63094	4726.7456
191.12479	4784.9497
192.61862	4896.98
194.11247	5078.2637
195.60632	5222.1777
197.10017	5285.7612
198.59402	5411.4297
200.08788	5387.0698
201.58173	5213.1465
203.07558	4983.8105
204.56943	4749.6611
206.06326	4526.9746
207.55711	4328.0083
209.05096	4183.146
210.54482	4092.4978
212.03867	4052.9414
213.53252	4025.8835
215.02637	3943.9214
216.52022	4064.8994
218.01405	3983.5146
219.5079	3985.4526
221.00175	4019.9304
222.49561	3979.1409
223.98946	3979.9641
225.48331	3848.572
226.97716	3747.7368
228.47101	3647.9094
229.96484	3573.5442
231.45869	3573.1531
232.95255	3523.6875
234.4464	3493.9456
235.94025	3418.6038
237.4341	3426.1846
238.92795	3508.8281
240.4218	3435.5964
241.91563	3392.6848
243.40948	3431.0217
244.90334	3493.1519
246.39719	3524.8218
247.89104	3509.9773
249.38489	3520.7136
250.87874	3497.7114
252.37259	3434.1328
253.86644	3402.2737
255.36028	3421.5513
256.85413	3466.9976
258.34799	3490.145
259.84183	3462.3721
261.33566	3438.9272
262.82953	3431.8909
264.32336	3453.7222
265.81723	3512.0718
267.31107	3537.7236
268.80493	3597.2456
270.29877	3510.3914
271.79263	3458.2651
273.28647	3520.8167
274.7803	3524.2825
276.27417	3531.7371
277.76801	3580.4246
279.26187	3620.0427
280.75571	3576.4233
282.24957	3479.3154
283.74341	3567.0288
285.23724	3598.5349
286.73111	3597.75
288.22495	3626.2378
289.71881	3632.3723
291.21265	3569.3408
292.70651	3548.5972
294.20035	3580.2407
295.69421	3610.2361
297.18805	3658.3433
298.68188	3676.5557
300.17575	3642.8662
301.66959	3774.094
303.16345	3667.8032
304.65729	3661.667
306.15115	3640.7422
307.64499	3601.5742
309.13885	3629.5059
310.63269	3731.6458
312.12653	3681.127
313.62039	3708.6426
315.11423	3721.9031
316.60809	3729.5627
318.10193	3781.905
319.59579	3562.4675
321.08963	3730.7585
322.58347	3743.2063
324.07733	3707.2998
325.57117	3743.8997
327.06503	3852.6318
328.55887	3732.6833
330.05273	3848.5942
331.54657	3872.4514
333.04044	3850.8145
334.53427	3870.0127
336.02811	3966.0071
337.52197	3975.1787
339.01581	4037.5005
340.50967	4100.9063
342.00351	4125.0146
343.49738	4119.6152
344.99121	4114.9199
346.48505	4008.9268
347.97891	4100.9092
349.47275	4116.4175
350.96661	4066.4761
352.46045	3980.7786
353.95432	3874.5945
355.44815	3767.6641
356.94202	3648.303
358.43585	3435.6477
359.92969	3316.9753
361.42355	3286.8027
362.91739	3213.2256
364.41125	3144.6565
365.90509	3003.2312
367.39896	3010.979
368.89279	3016.5447
370.38666	2974.9011
371.88049	2925.7961
373.37433	2882.271
374.86819	2855.8052
376.36203	2855.8503
377.8559	2881.9121
379.34973	2890.072
380.8436	2848.5364
382.33743	2805.0449
383.83127	2867.8948
385.32513	2871.8794
386.81897	2857.1855
388.31284	2863.9617
389.80667	2882.5278
391.30054	2832.2603
392.79437	2894.3311
394.28824	2860.0859
395.78207	2796.5164
397.27591	2760.9387
398.76978	2782.1646
400.26361	2840.7397
401.75748	2799.5984
403.25131	2774.8601
404.74518	2717.6206
406.23901	2719.8987
407.73288	2760.3608
409.22672	2724.0845
410.72055	2669.3926
412.21442	2668.3652
413.70825	2663.3376
415.20212	2644.0198
416.69595	2633.1523
418.18982	2648.2395
419.68365	2644.0334
421.17749	2618.093
422.67136	2627.2261
424.16519	2614.7937
425.65906	2620.0969
427.15289	2656.1323
428.64676	2637.5393
430.14059	2647.6577
431.63446	2622.6973
433.1283	2591.2214
434.62213	2607.428
436.116	2645.4949
437.60983	2621.7439
439.1037	2603.1975
440.59753	2575.9712
442.0914	2608.8203
443.58524	2636.7607
445.07907	2647.7646
446.57294	2662.4595
448.06677	2675.2969
449.56064	2707.4063
451.05447	2646.7744
452.54834	2617.4585
454.04218	2658.7141
455.53604	2716.6663
457.02988	2691.4373
458.52371	2718.4719
460.01758	2642.7815
461.51141	2654.5088
463.00528	2671.9678
464.49911	2686.9187
465.99298	2719.7537
467.48682	2633.499
468.98068	2620.3862
470.47452	2646.1926
471.96835	2656.8638
473.46222	2674.0125
474.95605	2725.8691
476.44992	2793.1416
477.94376	2749.1179
479.43762	2766.5171
480.93146	2793.3157
482.42529	2809.2422
483.91916	2865.8643
485.41299	2967.49
486.90686	2885.0056
488.4007	2885.8542
489.89456	2860.0205
491.3884	2838.5376
492.88226	2790.4827
494.3761	2708.4697
495.86993	2634.5833
497.3638	2587.073
498.85764	2537.1184
500.3515	2543.019
501.84534	2454.4128
503.3392	2349.5752
504.83304	2344.5344
506.3269	2346.8459
507.82074	2262.7566
509.31458	2211.2051
510.80844	2214.1589
512.30231	2227.3259
513.79614	2219.3452
515.28998	2187.4326
516.78381	2136.3604
518.27771	2174.0405
519.77155	2157.3354
521.26538	2145.9055
522.75922	2168.1174
524.25305	2169.7815
525.74695	2074.6821
527.24078	2113.8811
528.73462	2157.8774
530.22845	2185.0972
531.72229	2190.9426
533.21619	2178.9568
534.71002	2168.5796
536.20386	2185.759
537.69769	2144.856
539.19159	2178.0981
540.68542	2152.6733
542.17926	2200.9819
543.6731	2255.3928
545.16693	2214.6079
546.66083	2226.8843
548.15466	2245.6536
549.6485	2268.9294
551.14233	2280.8152
552.63623	2300.8684
554.13007	2334.3284
555.6239	2364.1648
557.11774	2366.4985
558.61157	2431.4885
560.10547	2333.0723
561.5993	2331.5654
563.09314	2372.1958
564.58698	2390.4775
566.08087	2385.6873
567.57471	2339.1587
569.06854	2361.4167
570.56238	2350.6318
572.05621	2346.7244
573.55011	2326.4602
575.04395	2287.1028
576.53778	2265.8855
578.03162	2300.9766
579.52551	2258.9795
581.01935	2197.678
582.51318	2183.429
584.00702	2206.9951
585.50085	2206.6829
586.99475	2139.8152
588.48859	2102.9966
589.98242	2101.2805
591.47626	2108.1802
592.97009	2095.4387
594.46399	2056.6389
595.95782	2011.6477
597.45166	1990.5103
598.9455	1998.8414
600.43939	1985.097
601.93323	1984.4562
603.42706	1970.3131
604.9209	2012.7384
606.41473	2056.543
607.90863	2003.6765
609.40247	1981.7646
610.8963	1974.0245
612.39014	1995.3907
613.88403	1981.1597
615.37787	1948.3367
616.8717	1927.6531
618.36554	1941.1735
619.85938	1995.4442
621.35327	2021.2751
622.84711	2031.7032
624.34094	1973.995
625.83478	1931.604
627.32867	1949.8894
628.82251	2001.5435
630.31635	2013.6976
631.81018	1966.2875
633.30402	1930.1017
634.79791	1989.7994
636.29175	2025.0555
637.78558	2042.0254
639.27942	2085.7649
640.77332	2128.426
642.26715	2035.2222
643.76099	2026.2593
645.25482	2076.5283
646.74866	2031.9617
648.24255	2050.3928
649.73639	2128.4336
651.23022	2097.6309
652.72406	2080.293
654.21796	2090.6626
655.71179	2021.9857
657.20563	2050.9109
658.69946	2089.2788
660.1933	2101.9106
661.68719	2107.687
663.18103	2089.0076
664.67487	2100.2542
666.1687	2136.5486
667.66254	2115.3374
669.15643	2103.1604
670.65027	2133.8108
672.1441	2167.3076
673.63794	2144.688
675.13184	2148.9104
676.62567	2128.0955
678.11951	2127.9504
679.61334	2155.5835
681.10718	2161.2285
682.60107	2160.4949
684.09491	2176.3931
685.58875	2142.4893
687.08258	2136.4182
688.57648	2208.6929
690.07031	2168.603
691.56415	2220.9075
693.05798	2263.2825
694.55182	2232.479
696.04572	2236.2917
697.53955	2193.0332
699.03339	2244.2703
700.52722	2304.5696
702.02112	2333.8411
703.51495	2350.3604
705.00879	2375.5757
706.50262	2405.0823
707.99646	2412.9067
709.49036	2420.7407
710.98419	2473.9692
712.47803	2450.5671
713.97186	2452.7014
715.46576	2531.2771
716.95959	2606.5593
718.45343	2599.5659
719.94727	2633.7344
721.4411	2726.0132
722.935	2737.0288
724.42883	2739.3538
725.92267	2721.8992
727.4165	2688.9329
728.91034	2688.5098
730.40424	2750.1326
731.89807	2759.4319
733.39191	2721.0769
734.88574	2745.865
736.37964	2735.0803
737.87347	2694.5393
739.36731	2667
740.86115	2668.6248
742.35498	2674.2979
743.84888	2680.2017
745.34271	2587.5662
746.83655	2580.5842
748.33038	2566.0513
749.82428	2521.1821
751.31812	2476.2036
752.81195	2467.3162
754.30579	2476.1492
755.79962	2379.896
757.29352	2369.4075
758.78735	2298.2837
760.28119	2313.9878
761.77502	2322.2832
763.26892	2318.5774
764.76276	2330.1216
766.25659	2317.3967
767.75043	2307.387
769.24426	2342.3945
770.73816	2251.1001
772.23199	2233.7522
773.72583	2275.9294
775.21967	2270.4014
776.71356	2204.397
778.2074	2198.6292
779.70123	2256.0398
781.19507	2257.7947
782.6889	2200.6609
784.1828	2195.7319
785.67664	2222.1086
787.17047	2232.2644
788.66431	2213.0227
790.15814	2197.5444
791.65204	2219.3726
793.14587	2184.23
794.63971	2175.4209
796.13354	2218.5906
797.62744	2198.4055
799.12128	2166.301
800.61511	2174.5645
802.10895	2185.3672
803.60278	2168.5142
805.09668	2150.0396
806.59052	2217.0881
808.08435	2263.6377
809.57819	2225.1396
811.07208	2181.0166
812.56592	2183.2017
814.05975	2200.5444
815.55359	2193.0774
817.04742	2225.6692
818.54132	2227.7441
820.03516	2212.1814
821.52899	2238.095
823.02283	2253.9358
824.51672	2257.1633
826.01056	2268.3389
827.50439	2284.3657
828.99823	2321.0598
830.49207	2280.4795
831.98596	2282.647
833.4798	2319.1489
834.97363	2311.5544
836.46747	2379.3708
837.96136	2420.7778
839.4552	2304.8281
840.94904	2326.4148
842.44287	2364.3987
843.93671	2351.0869
845.4306	2373.103
846.92444	2375.9038
848.41827	2347.9924
849.91211	2344.4448
851.40601	2371.2639
852.89984	2353.7959
854.39368	2294.2639
855.88751	2343.8071
857.38135	2357.7617
858.87524	2312.2419
860.36908	2330.6711
861.86292	2358.4163
863.35675	2330.4023
864.85059	2272.6614
866.34448	2270.8538
867.83832	2354.3215
869.33215	2296.731
870.82599	2303.7683
872.31989	2231.7229
873.81372	2224.9692
875.30756	2219.9277
876.80139	2172.8247
878.29523	2142.4622
879.78912	2161.5977
881.28296	2291.9604
882.77679	2118.0388
884.27063	2092.3135
885.76453	2070.9312
887.25836	2032.0483
888.7522	1982.3179
890.24603	1962.6439
891.73987	2004.366
893.23376	2050.5149
894.7276	2014.0856
896.22144	2081.3833
897.71527	1954.9152
899.20917	2004.5243
900.703	2002.9573
902.19684	1962.0039
903.69067	1961.3346
905.18451	1972.9022
906.67841	1973.6638
908.17224	1901.0555
909.66608	1914.4063
911.15991	1947.3567
912.65381	1926.3334
914.14764	1951.0101
915.64148	1953.1549
917.13531	1920.6945
918.62915	1937.4783
920.12305	1985.1892
921.61688	1975.1135
923.11072	2062.4646
924.60455	2030.7794
926.09839	2093.4758
927.59229	2100.2595
929.08612	2075.7847
930.57996	2066.8806
932.07379	2084.3923
933.56769	2138.4768
935.06152	2140.7942
936.55536	2137.2234
938.04919	2203.2012
939.54303	2194.7959
941.03693	2198.251
942.53076	2170.2424
944.0246	2159.0229
945.51843	2173.6917
947.01233	2148.2322
948.50616	2184.8108
950	2183.0227
951.49384	2084.8911
952.98767	2107.0254
954.48157	2100.833
955.9754	2082.1956
957.46924	2059.1523
958.96307	2062.4939
960.45697	2095.9446
961.95081	2071.9963
963.44464	1988.3462
964.93848	2014.3169
966.43231	1984.9701
967.92621	1977.5306
969.42004	1969.4232
970.91388	1933.3219
972.40771	1879.0906
973.90161	1808.2743
975.39545	1743.0603
976.88928	1780.7451
978.38312	1793.0463
979.87695	1728.3845
981.37085	1676.7172
982.86469	1723.9579
984.35852	1680.8059
985.85236	1634.4827
987.34619	1613.5211
988.84009	1570.9825
990.33392	1541.7612
991.82776	1561.5759
993.32159	1530.1317
994.81549	1524.625
996.30933	1471.4926
997.80316	1498.9851
999.297	1500.952
1000.7908	1493.9565
1002.2847	1473.1498
1003.7786	1459.7164
1005.2724	1508.0856
1006.7662	1460.3234
1008.2601	1435.1263
1009.754	1393.7566
1011.2478	1416.9242
1012.7416	1419.8094
1014.2355	1450.3816
1015.7294	1444.4248
1017.2232	1423.847
1018.717	1429.1346
1020.2109	1417.5875
1021.7048	1419.1477
1023.1986	1445.3185
1024.6924	1471.4644
1026.1863	1427.5303
1027.6802	1419.8727
1029.174	1421
1030.6678	1408.4271
1032.1617	1395.72
1033.6555	1414.1432
1035.1494	1455.4678
1036.6432	1452.0476
1038.1371	1421.8925
1039.631	1441.782
1041.1248	1487.996
1042.6187	1517.8497
1044.1124	1479.5964
1045.6063	1467.2552
1047.1002	1472.7301
1048.594	1459.7106
1050.0879	1453.1334
1051.5817	1476.8179
1053.0756	1473.109
1054.5695	1443.2209
1056.0632	1456.4867
1057.5571	1499.863
1059.051	1453.8174
1060.5448	1454.4639
1062.0387	1485.7451
1063.5325	1508.2979
1065.0264	1489.7775
1066.5203	1441.0431
1068.014	1476.1931
1069.5079	1548.7731
1071.0017	1513.386
1072.4956	1526.8235
1073.9895	1444.8047
1075.4833	1516.5455
1076.9772	1509.3953
1078.4709	1477.5173
1079.9648	1464.767
1081.4587	1451.9623
1082.9525	1459.5674
1084.4464	1427.3199
1085.9402	1463.7163
1087.4341	1399.1729
1088.928	1389.9486
1090.4218	1429.2374
1091.9156	1436.9004
1093.4095	1433.8141
1094.9033	1441.0527
1096.3972	1439.8961
1097.891	1411.7754
1099.3849	1385.3859
1100.8788	1400.1093
1102.3726	1385.6996
1103.8665	1430.3254
1105.3602	1422.3561
1106.8541	1465.1121
1108.348	1463.0222
1109.8418	1432.5627
1111.3357	1436.8691
1112.8295	1456.7382
1114.3234	1457.2684
1115.8173	1447.028
1117.311	1430.7478
1118.8049	1444.5338
1120.2988	1395.2065
1121.7926	1429.5303
1123.2865	1415.7495
1124.7803	1426.6858
1126.2742	1414.5023
1127.7681	1419.0416
1129.2618	1435.7
1130.7557	1450.5466
1132.2495	1457.3451
1133.7434	1448.5131
1135.2373	1477.5024
1136.7311	1514.1353
1138.225	1516.8782
1139.7188	1485.5055
1141.2126	1486.5267
1142.7065	1490.1128
1144.2003	1481.0823
1145.6942	1521.0386
1147.188	1522.707
1148.6819	1485.1567
1150.1758	1514.561
1151.6696	1543.2535
1153.1635	1520.5704
1154.6573	1526.4615
1156.1511	1569.5204
1157.645	1499.4664
1159.1388	1537.9725
1160.6327	1546.4188
1162.1266	1546.4603
1163.6204	1521.3785
1165.1143	1511.0352
1166.608	1525.8986
1168.1019	1536.266
1169.5958	1558.4753
1171.0896	1529.6185
1172.5835	1560.9094
1174.0773	1512.202
1175.5712	1506.4934
1177.0651	1550.5707
1178.5588	1591.2983
1180.0527	1590.9554
1181.5466	1582.8938
1183.0404	1589.0884
1184.5343	1592.6854
1186.0281	1576.3334
1187.522	1549.1998
1189.0159	1527.8759
1190.5096	1521.8647
1192.0035	1596.3719
1193.4973	1592.4332
1194.9912	1540.3184
1196.4851	1548.1149
1197.9789	1501.9808
1199.4728	1530.1228
1200.9666	1543.6948
1202.4604	1515.5161
1203.9543	1498.7649
1205.4481	1499.3367
1206.942	1527.043
1208.4359	1504.3842
1209.9297	1509.387
1211.4236	1552.714
1212.9174	1536.9811
1214.4113	1517.8002
1215.9052	1493.2357
1217.3989	1527.8877
1218.8928	1562.5389
1220.3866	1531.558
1221.8805	1489.0815
1223.3744	1463.8621
1224.8682	1459.1993
1226.3621	1535.0977
1227.8558	1517.6644
1229.3497	1479.2411
1230.8436	1531.9656
1232.3374	1492.231
1233.8313	1478.0264
1235.3251	1553.9293
1236.819	1465.0657
1238.3129	1483.6669
1239.8066	1514.0153
1241.3005	1516.9796
1242.7944	1516.9716
1244.2882	1508.6791
1245.7821	1546.473
1247.2759	1497.2006
1248.7698	1492.4187
1250.2637	1586.1021
1251.7574	1538.8119
1253.2513	1545.5946
1254.7451	1559.7959
1256.239	1544.0868
1257.7329	1563.8335
1259.2267	1599.5365
1260.7206	1613.9795
1262.2144	1623.5249
1263.7083	1601.7688
1265.2021	1559.9196
1266.6959	1615.7709
1268.1898	1646.4058
1269.6837	1610.7421
1271.1775	1619.1167
1272.6714	1628.411
1274.1652	1659.4731
1275.6591	1659.9979
1277.153	1683.8307
1278.6467	1681.1132
1280.1406	1692.1265
1281.6344	1674.8276
1283.1283	1682.7622
1284.6222	1674.558
1286.116	1618.6665
1287.6099	1669.3884
1289.1036	1659.1803
1290.5975	1691.1908
1292.0914	1680.6638
1293.5852	1795.2522
1295.0791	1714.271
1296.5729	1679.9998
1298.0668	1694.1359
1299.5607	1725.1178
1301.0544	1734.1096
1302.5483	1729.6237
1304.0422	1717.0895
1305.536	1718.1515
1307.0299	1728.2859
1308.5237	1722.6627
1310.0176	1725.3324
1311.5115	1703.7202
1313.0052	1660.2463
1314.4991	1698.149
1315.9929	1641.1721
1317.4868	1665.9879
1318.9807	1660.6591
1320.4745	1676.6781
1321.9684	1670.7478
1323.4622	1652.6001
1324.9561	1617.4606
1326.45	1599.0376
1327.9437	1642.8029
1329.4376	1685.8759
1330.9315	1667.5223
1332.4253	1670.6147
1333.9192	1681.0585
1335.413	1603.4736
1336.9069	1686.0525
1338.4008	1610.1119
1339.8945	1642.7313
1341.3884	1639.7684
1342.8822	1641.4294
1344.3761	1653.2067
1345.87	1604.9901
1347.3638	1671.2571
1348.8577	1677.2435
1350.3514	1662.9099
1351.8453	1662.5542
1353.3392	1648.2601
1354.833	1662.8972
1356.3269	1620.6594
1357.8207	1603.2682
1359.3146	1672.2604
1360.8085	1675.3312
1362.3022	1693.2444
1363.7961	1718.6006
1365.29	1662.2441
1366.7838	1677.3602
1368.2777	1710.4425
1369.7715	1672.2225
1371.2654	1686.1237
1372.7593	1715.8
1374.2531	1714.975
1375.7469	1713.6066
1377.2407	1708.6105
1378.7346	1701.9863
1380.2285	1729.0962
1381.7223	1750.277
1383.2162	1747.8833
1384.71	1692.6981
1386.2039	1820.7522
1387.6978	1712.6493
1389.1915	1656.1328
1390.6854	1742.0854
1392.1793	1727.1708
1393.6731	1770.921
1395.167	1766.9967
1396.6608	1801.7782
1398.1547	1792.6628
1399.6486	1807.666
1401.1423	1820.1914
1402.6362	1788.6545
1404.13	1759.4353
1405.6239	1736.1599
1407.1178	1729.2354
1408.6116	1755.0822
1410.1055	1768.9689
1411.5992	1814.0977
1413.0931	1759.2075
1414.587	1817.7748
1416.0808	1776.5403
1417.5747	1724.2518
1419.0685	1748.0107
1420.5624	1766.478
1422.0563	1793.9713
1423.55	1789.5378
1425.0439	1734.6946
1426.5378	1740.0879
1428.0316	1743.3953
1429.5255	1716.8555
1431.0193	1748.6793
1432.5132	1779.6626
1434.0071	1717.8302
1435.5009	1695.5509
1436.9948	1767.649
1438.4885	1731.833
1439.9824	1701.0934
1441.4763	1747.5487
1442.9701	1693.4612
1444.464	1711.8175
1445.9578	1761.9529
1447.4517	1694.9745
1448.9456	1642.389
1450.4393	1665.1833
1451.9332	1666.0045
1453.4271	1723.448
1454.9209	1723.7592
1456.4148	1674.2675
1457.9086	1625.6637
1459.4025	1656.6727
1460.8964	1720.144
1462.3901	1672.4163
1463.884	1639.7104
1465.3778	1677.1215
1466.8717	1636.2222
1468.3656	1633.5844
1469.8594	1633.574
1471.3533	1604.6903
1472.847	1655.9186
1474.3409	1614.9695
1475.8348	1690.9698
1477.3286	1686.9702
1478.8225	1668.7588
1480.3163	1647.405
1481.8102	1632.6643
1483.3041	1690.0944
1484.7979	1673.1421
1486.2917	1677.3899
1487.7856	1692.4852
1489.2794	1688.8889
1490.7733	1697.842
1492.2671	1705.9722
1493.761	1694.3479
1495.2549	1680.3665
1496.7487	1717.2241
1498.2426	1747.2133
1499.7363	1781.8396
1501.2302	1729.5087
1502.7241	1717.9998
1504.2179	1785.5416
1505.7118	1746.3568
1507.2056	1755.4834
1508.6995	1796.6986
1510.1934	1825.0996
1511.6871	1784.8777
1513.181	1771.9053
1514.6749	1774.6563
1516.1687	1823.5015
1517.6626	1843.7089
1519.1564	1834.5619
1520.6503	1846.9443
1522.1442	1821.0496
1523.6379	1814.9773
1525.1318	1826.3817
1526.6256	1834.0066
1528.1195	1891.7039
1529.6134	1867.8644
1531.1072	1827.0731
1532.6011	1873.7179
1534.0948	1887.3717
1535.5887	1869.1666
1537.0826	1908.2104
1538.5764	1936.5295
1540.0703	1957.05
1541.5641	1923.4614
1543.058	1947.6135
1544.5519	1965.3403
1546.0457	1967.8682
1547.5396	1917.4598
1549.0334	1918.8496
1550.5272	1928.0073
1552.0211	1920.7352
1553.5149	1937.8949
1555.0088	1942.2762
1556.5027	1941.9889
1557.9965	1961.3599
1559.4904	1944.1896
1560.9841	1953.8009
1562.478	1978.792
1563.9719	1965.33
1565.4657	1978.9686
1566.9596	1981.2726
1568.4534	1960.3102
1569.9473	1927.563
1571.4412	1886.3649
1572.9349	1930.1007
1574.4288	1931.8727
1575.9227	1990.8367
1577.4165	2020.2998
1578.9104	1946.7926
1580.4042	1962.3286
1581.8981	1907.3018
1583.392	1946.4871
1584.8857	1870.0771
1586.3796	1866.3654
1587.8734	1954.1545
1589.3673	1932.4077
1590.8612	1943.0066
1592.355	1925.4573
1593.8489	1872.0468
1595.3427	1861.6899
1596.8365	1857.7435
1598.3304	1848.1818
1599.8242	1830.1897
1601.3181	1838.8523
1602.812	1845.9259
1604.3058	1846.8458
1605.7997	1854.1702
1607.2935	1852.4725
1608.7874	1841.3768
1610.2813	1800.6647
1611.775	1765.2805
1613.2689	1746.476
1614.7627	1767.7861
1616.2566	1737.7661
1617.7505	1734.3716
1619.2443	1792.8457
1620.7382	1742.8473
1622.2319	1705.2504
1623.7258	1754.6073
1625.2197	1747.821
1626.7135	1715.8602
1628.2074	1693.537
1629.7012	1660.7914
1631.1951	1577.3717
1632.689	1658.8109
1634.1827	1624.454
1635.6766	1579.6156
1637.1705	1565.5814
1638.6643	1553.937
1640.1582	1523.3994
1641.652	1546.3112
1643.1459	1473.4077
1644.6398	1546.9957
1646.1335	1538.5632
1647.6274	1528.969
1649.1212	1524.9241
1650.6151	1510.8356
1652.109	1507.4338
1653.6028	1499.2008
1655.0967	1487.9617
1656.5905	1469.4147
1658.0844	1469.99
1659.5782	1488.8574
1661.072	1450.2419
1662.5659	1408.3167
1664.0598	1435.4283
1665.5536	1393.5115
1667.0475	1435.1844
1668.5413	1406.5099
1670.0352	1390.9015
1671.5291	1384.9248
1673.0228	1396.7697
1674.5167	1380.5361
1676.0105	1347.1376
1677.5044	1423.653
1678.9983	1372.131
1680.4921	1352.6129
1681.986	1356.7961
1683.4797	1314.8929
1684.9736	1352.1318
1686.4675	1361.1101
1687.9613	1370.2682
1689.4552	1344.6387
1690.949	1369.9973
1692.4429	1318.2874
1693.9368	1368.4751
1695.4305	1334.033
1696.9244	1297.4971
1698.4183	1285.1498
1699.9121	1305.3157
1701.406	1278.0679
1702.8998	1322.7389
1704.3937	1300.1147
1705.8876	1310.7531
1707.3813	1292.911
1708.8752	1280.489
1710.369	1275.0332
1711.8629	1274.3204
1713.3568	1277.9398
1714.8506	1273.6267
1716.3445	1281.6503
1717.8383	1295.5028
1719.3322	1261.0824
1720.826	1275.3446
1722.3198	1287.375
1723.8137	1271.1987
1725.3076	1273.3684
1726.8014	1268.2491
1728.2953	1282.5505
1729.7891	1281.3016
1731.283	1261.4513
1732.7769	1274.4893
1734.2706	1281.479
1735.7645	1269.2516
1737.2583	1256.6422
1738.7522	1270.6216
1740.2461	1242.6033
1741.7399	1251.4841
1743.2338	1276.3268
1744.7275	1282.4725
1746.2214	1307.5378
1747.7153	1285.1544
1749.2091	1253.7308
1750.703	1272.9097
1752.1968	1291.5856
1753.6907	1297.3605
1755.1846	1293.7102
1756.6783	1272.0068
1758.1722	1292.8844
1759.6661	1263.3304
1761.1599	1249.017
1762.6538	1321.0923
1764.1476	1312.6637
1765.6415	1281.9707
1767.1354	1324.2383
1768.6292	1312.0706
1770.123	1256.3776
1771.6168	1311.0388
1773.1107	1341.8132
1774.6046	1318.3191
1776.0984	1292.6578
1777.5923	1322.0023
1779.0861	1321.5551
1780.58	1304.1698
1782.0739	1368.9393
1783.5676	1327.201
1785.0615	1315.6879
1786.5554	1274.6578
1788.0492	1300.8114
1789.5431	1252.9008
1791.0369	1267.4668
1792.5308	1302.2963
1794.0247	1323.7761
1795.5184	1284.004
1797.0123	1285.2743
1798.5061	1289.8643
1800	1250.8793
1801.4939	1243.4653
1802.9877	1299.0021
1804.4816	1256.02
1805.9753	1231.6942
1807.4692	1263.3397
1808.9631	1284.5238
1810.4569	1224.474
1811.9508	1255.3668
1813.4446	1237.8262
1814.9385	1204.0809
1816.4324	1236.5208
1817.9261	1245.9989
1819.42	1258.851
1820.9139	1269.3918
1822.4077	1292.3698
1823.9016	1276.0482
1825.3954	1250.338
1826.8893	1249.7441
1828.3832	1219.6986
1829.877	1217.3199
1831.3708	1228.609
1832.8646	1203.1852
1834.3585	1187.7748
1835.8524	1233.2781
1837.3462	1198.4438
1838.8401	1173.3262
1840.3339	1208.1743
1841.8278	1201.7705
1843.3217	1207.1088
1844.8154	1186.0255
1846.3093	1163.0591
1847.8032	1177.1519
1849.297	1176.3962
1850.7909	1164.4276
1852.2847	1202.8441
1853.7786	1234.2585
1855.2725	1226.2776
1856.7662	1234.4792
1858.2601	1229.7993
1859.7539	1186.6305
1861.2478	1157.3889
1862.7417	1175.7349
1864.2355	1188.0128
1865.7294	1190.9766
1867.2231	1203.4855
1868.717	1248.1443
1870.2109	1261.6674
1871.7047	1239.6162
1873.1986	1224.2692
1874.6924	1232.6973
1876.1863	1229.5577
1877.6802	1193.4917
1879.174	1190.6556
1880.6678	1240.3807
1882.1617	1261.7953
1883.6555	1265.5844
1885.1494	1255.3821
1886.6432	1258.4976
1888.1371	1296.0446
1889.631	1271.2146
1891.1248	1264.4205
1892.6187	1224.4244
1894.1124	1169.2596
1895.6063	1223.3601
1897.1002	1262.9084
1898.594	1271.0165
1900.0879	1254.9669
1901.5817	1259.8418
1903.0756	1245.7719
1904.5695	1209.5947
1906.0632	1230.8682
1907.5571	1233.5291
1909.051	1244.397
1910.5448	1257.1885
1912.0387	1256.493
1913.5325	1252.3213
1915.0264	1291.9387
1916.5203	1290.1112
1918.014	1252.2334
1919.5079	1261.7745
1921.0017	1267.4121
1922.4956	1249.7764
1923.9895	1247.4905
1925.4833	1249.8531
1926.9772	1239.0874
1928.4709	1238.1738
1929.9648	1275.177
1931.4587	1246.1401
1932.9525	1223.8079
1934.4464	1218.3054
1935.9402	1221.9197
1937.4341	1217.0392
1938.928	1216.9319
1940.4218	1199.9225
1941.9156	1211.2705
1943.4095	1210.2098
1944.9033	1231.4915
1946.3972	1208.6824
1947.891	1167.7787
1949.3849	1195.0751
1950.8788	1189.9313
1952.3726	1140.2516
1953.8665	1136.1141
1955.3602	1154.8391
1956.8541	1137.3356
1958.348	1143.6539
1959.8418	1151.0674
1961.3357	1147.0433
1962.8295	1142.2743
1964.3234	1140.7969
1965.8173	1121.7321
1967.311	1126.2638
1968.8049	1137.962
1970.2988	1131.4794
1971.7926	1114.8654
1973.2865	1135.8259
1974.7803	1146.1083
1976.2742	1129.0962
1977.7681	1143.5115
1979.2618	1144.2214
1980.7557	1146.1212
1982.2495	1135.3267
1983.7434	1151.9694
1985.2373	1165.452
1986.7311	1126.4734
1988.225	1094.1702
1989.7188	1095.3434
1991.2126	1147.825
1992.7065	1141.3802
1994.2003	1139.1963
1995.6942	1144.7108
1997.188	1156.5538
1998.6819	1156.5989
2000.1758	1157.9806
2001.6696	1157.4861
2003.1635	1184.681
2004.6573	1162.536
2006.1511	1124.642
2007.645	1129.0902
2009.1388	1132.8187
2010.6327	1172.9155
2012.1266	1174.2428
2013.6204	1164.421
2015.1143	1184.7828
2016.608	1167.6235
2018.1019	1182.9979
2019.5958	1205.1044
2021.0896	1173.5917
2022.5835	1150.2698
2024.0773	1171.9633
2025.5712	1126.368
2027.0651	1187.141
2028.5588	1165.0641
2030.0527	1190.5155
2031.5466	1216.3076
2033.0404	1142.9772
2034.5343	1237.8035
2036.0281	1206.3226
2037.522	1211.4673
2039.0159	1221.8041
2040.5096	1207.3209
2042.0035	1270.2454
2043.4973	1232.3693
2044.9912	1204.2573
2046.4851	1190.5872
2047.9789	1218.1755
2049.4727	1206.114
2050.9666	1201.775
2052.4604	1210.2578
2053.9543	1219.58
2055.4482	1216.6727
2056.9419	1212.8976
2058.4358	1232.9746
2059.9297	1220.5289
2061.4236	1170.6879
2062.9175	1193.3303
2064.4111	1219.244
2065.905	1214.899
2067.3989	1241.2324
2068.8928	1210.2603
2070.3867	1197.8767
2071.8804	1228.4199
2073.3743	1218.2365
2074.8682	1212.1381
2076.3621	1208.8669
2077.856	1206
2079.3499	1221.8348
2080.8435	1194.3052
2082.3374	1187.8749
2083.8313	1183.5031
2085.3252	1209.3472
2086.8191	1181.5132
2088.3127	1144.9777
2089.8066	1175.9563
2091.3005	1167.285
2092.7944	1176.4012
2094.2883	1132.5144
2095.782	1165.7162
2097.2759	1103.7678
2098.7698	1191.2556
2100.2637	1151.103
2101.7576	1129.3563
2103.2512	1158.9769
2104.7451	1155.2634
2106.239	1135.0752
2107.7329	1161.8312
2109.2268	1090.9915
2110.7205	1158.0502
2112.2144	1125.8035
2113.7083	1183.8651
2115.2021	1139.9653
2116.696	1105.399
2118.1897	1055.4724
2119.6836	1097.0247
2121.1775	1111.7607
2122.6714	1115.3228
2124.1653	1095.772
2125.6589	1069.9955
2127.1528	1118.1401
2128.6467	1111.4988
2130.1406	1112.2982
2131.6345	1139.045
2133.1282	1179.8352
2134.6221	1138.3417
2136.116	1131.4735
2137.6099	1168.3531
2139.1038	1134.7574
2140.5977	1113.3108
2142.0913	1195.7274
2143.5852	1153.0209
2145.0791	1113.1917
2146.573	1074.1793
2148.0669	1129.046
2149.5605	1158.4325
2151.0544	1144.7466
2152.5483	1123.4017
2154.0422	1115.2469
2155.5361	1180.7767
2157.0298	1173.7729
2158.5237	1130.6034
2160.0176	1116.995
2161.5115	1194.1324
2163.0054	1177.2281
2164.499	1172.7794
2165.9929	1233.9752
2167.4868	1212.2306
2168.9807	1181.6171
2170.4746	1140.6908
2171.9683	1182.4747
2173.4622	1179.0497
2174.9561	1216.6632
2176.45	1193.4469
2177.9438	1180.5066
2179.4375	1222.2584
2180.9314	1263.9424
2182.4253	1210.7548
2183.9192	1222.4192
2185.4131	1220.8936
2186.9067	1229.2561
2188.4006	1199.0072
2189.8945	1163.2533
2191.3884	1143.9913
2192.8823	1235.2944
2194.376	1191.7449
2195.8699	1199.6891
2197.3638	1241.3141
2198.8577	1246.988
2200.3516	1256.87
2201.8455	1201.8267
2203.3391	1260.0492
2204.833	1237.1531
2206.3269	1288.5142
2207.8208	1273.4834
2209.3147	1238.2238
2210.8083	1222.6031
2212.3022	1221.6107
2213.7961	1228.7898
2215.29	1235.4133
2216.7839	1258.3923
2218.2776	1263.1185
2219.7715	1220
2221.2654	1228.6866
2222.7593	1223.8441
2224.2532	1200.4962
2225.7468	1204.6119
2227.2407	1275.2452
2228.7346	1224.3773
2230.2285	1200.7015
2231.7224	1230.3096
2233.2161	1223.204
2234.71	1203.0179
2236.2039	1203.9841
2237.6978	1228.556
2239.1917	1218.2936
2240.6853	1243.6189
2242.1792	1214.6165
2243.6731	1166.8901
2245.167	1216.7117
2246.6609	1236.4869
2248.1545	1201.4431
2249.6484	1145.9584
2251.1423	1152.4657
2252.6362	1158.6295
2254.1301	1150.5664
2255.624	1165.8386
2257.1177	1174.1918
2258.6116	1143.8356
2260.1055	1156.4275
2261.5994	1171.9537
2263.0933	1165.1536
2264.5869	1106.5363
2266.0808	1076.5822
2267.5747	1101.6904
2269.0686	1132.1018
2270.5625	1125.0813
2272.0562	1125.6719
2273.55	1072.7057
2275.0439	1160.3896
2276.5378	1132.1875
2278.0317	1140.7869
2279.5254	1087.9135
2281.0193	1106.7711
2282.5132	1112.2814
2284.0071	1099.6884
2285.501	1096.6234
2286.9946	1100.2196
2288.4885	1122.4811
2289.9824	1136.7037
2291.4763	1110.5851
2292.9702	1108.1174
2294.4639	1160.2317
2295.9578	1097.3014
2297.4517	1074.0912
2298.9456	1093.7192
2300.4395	1119.8254
2301.9331	1101.7728
2303.427	1140.5262
2304.9209	1136
2306.4148	1124.3499
2307.9087	1076.5013
2309.4023	1078.9106
2310.8962	1097.8949
2312.3901	1119.2452
2313.884	1108.4318
2315.3779	1115.5471
2316.8718	1113.5106
2318.3655	1106.5668
2319.8594	1133.7675
2321.3533	1107.5186
2322.8472	1094.7772
2324.3411	1117.4446
2325.8347	1160.0874
2327.3286	1137.7607
2328.8225	1148.923
2330.3164	1142.5404
2331.8103	1152.7913
2333.304	1155.4695
2334.7979	1167.8596
2336.2917	1137.2623
2337.7856	1138.2617
2339.2795	1105.1725
2340.7732	1135.304
2342.2671	1148.2568
2343.761	1148.0712
2345.2549	1156.5216
2346.7488	1203.582
2348.2424	1144.6146
2349.7363	1147.9308
2351.2302	1136.9293
2352.7241	1130.3174
2354.218	1132.8571
2355.7117	1122.5255
2357.2056	1172.9666
2358.6995	1182.2949
2360.1934	1155.1335
2361.6873	1142.0876
2363.1809	1130.6591
2364.6748	1156.8566
2366.1687	1177.823
2367.6626	1169.8058
2369.1565	1165.1219
2370.6501	1114.9159
2372.144	1163.7566
2373.6379	1186.7721
2375.1318	1182.572
2376.6257	1253.2926
2378.1196	1206.9723
2379.6133	1271.7656
2381.1072	1178.4344
2382.6011	1194.1356
2384.095	1221.3441
2385.5889	1248.4075
2387.0825	1210.6688
2388.5764	1185.709
2390.0703	1200.7302
2391.5642	1221.272
2393.0581	1184.0986
2394.5518	1181.3234
2396.0457	1205.3171
2397.5396	1209.6113
2399.0334	1214.9304
2400.5273	1263.6127
2402.021	1249.1387
2403.5149	1156.8357
2405.0088	1197.2375
2406.5027	1178.807
2407.9966	1163.2709
2409.4902	1184.0933
2410.9841	1199.4418
2412.478	1194.7557
2413.9719	1230.2894
2415.4658	1196.9261
2416.9595	1212.9988
2418.4534	1217.6042
2419.9473	1223.3861
2421.4412	1244.4449
2422.9351	1239.7655
2424.4287	1199.0131
2425.9226	1250.5883
2427.4165	1182.6707
2428.9104	1219.2249
2430.4043	1215.3353
2431.8979	1226.7434
2433.3918	1212.2217
2434.8857	1189.5093
2436.3796	1221.9141
2437.8735	1223.4661
2439.3674	1209.4364
2440.8611	1236.2211
2442.355	1217.2375
2443.8489	1221.8774
2445.3428	1253.1163
2446.8367	1237.1576
2448.3303	1274.8811
2449.8242	1208.2609
2451.3181	1215.2885
2452.812	1234.0957
2454.3059	1218.2896
2455.7996	1222.0782
2457.2935	1215.1931
2458.7874	1215.1931
2460.2813	1215.1931
2461.7751	1215.1931
2463.2688	1195.9242
2464.7627	1169.3799
2466.2566	1186.1776
2467.7505	1210.04
2469.2444	1214.4962
2470.738	1193.7346
2472.2319	1170.6801
2473.7258	1237.0306
2475.2197	1240.7646
2476.7136	1225.9823
2478.2073	1220.4766
2479.7012	1224.8619
2481.1951	1196.6171
2482.689	1199.7911
2484.1829	1174.7334
2485.6765	1221.4498
2487.1704	1210.52
2488.6643	1197.0913
2490.1582	1204.5967
2491.6521	1172.1248
2493.1458	1254.5743
2494.6396	1235.3911
2496.1335	1185.0979
2497.6274	1200.5857
2499.1213	1222.941
2500.6152	1219.9207
2502.1089	1179.4462
2503.6028	1215.4584
2505.0967	1252.1591
2506.5906	1174.9835
2508.0845	1243.5419
2509.5781	1173.7992
2511.072	1186.7522
2512.5659	1194.2932
2514.0598	1154.5864
2515.5537	1200.2885
2517.0474	1209.5035
2518.5413	1215.2277
2520.0352	1190.3081
2521.5291	1157.856
2523.0229	1233.1411
2524.5166	1255.4298
2526.0105	1222.4562
2527.5044	1243.1453
2528.9983	1224.486
2530.4922	1248.8722
2531.9858	1208.3682
2533.4797	1213.3788
2534.9736	1223.4817
2536.4675	1205.9202
2537.9614	1205.6158
2539.4551	1227.6393
2540.949	1177.5284
2542.4429	1239.6799
2543.9368	1232.2566
2545.4307	1292.4435
2546.9243	1239.8689
2548.4182	1214.1476
2549.9121	1205.9683
2551.406	1223.0938
2552.8999	1253.8794
2554.3936	1218.9977
2555.8875	1248.1564
2557.3813	1260.9814
2558.8752	1267.5696
2560.3691	1267.2266
2561.863	1289.5044
2563.3567	1247.2031
2564.8506	1274.9606
2566.3445	1295.4603
2567.8384	1280.2495
2569.3323	1294.3654
2570.8259	1275.1436
2572.3198	1252.902
2573.8137	1273.2389
2575.3076	1358.6107
2576.8015	1285.0309
2578.2952	1260.3717
2579.7891	1296.8485
2581.283	1287.5344
2582.7769	1353.8898
2584.2708	1281.6188
2585.7644	1291.2203
2587.2583	1298.6785
2588.7522	1321.0647
2590.2461	1298.5364
2591.74	1300.8043
2593.2336	1293.6605
2594.7275	1299.4165
2596.2214	1319.8507
2597.7153	1284.5999
2599.2092	1264.8508
2600.7029	1292.4363
2602.1968	1303.51
2603.6907	1283.4939
2605.1846	1297.1025
2606.6785	1313.9034
2608.1721	1298.9197
2609.666	1302.5629
2611.1599	1314.8954
2612.6538	1289.875
2614.1477	1353.0186
2615.6414	1305.9653
2617.1353	1306.1573
2618.6292	1325.3839
2620.123	1313.9521
2621.6169	1363.752
2623.1108	1347.0187
2624.6045	1336.845
2626.0984	1316.1814
2627.5923	1329.3099
2629.0862	1287.6051
2630.5801	1315.6414
2632.0737	1283.7617
2633.5676	1277.937
2635.0615	1288.9456
2636.5554	1318.0844
2638.0493	1301.5883
2639.543	1291.8884
2641.0369	1296.3401
2642.5308	1283.3911
2644.0247	1286.3386
2645.5186	1318.6093
2647.0122	1317.8413
2648.5061	1305.6874
2650	1314.621
2651.4939	1287.1967
2652.9878	1308.8145
2654.4814	1322.0238
2655.9753	1322.3954
2657.4692	1293.8335
2658.9631	1360.476
2660.457	1339.4396
2661.9507	1332.5125
2663.4446	1326.262
2664.9385	1314.8676
2666.4324	1358.1616
2667.9263	1331.9153
2669.4199	1364.2662
2670.9138	1362.5922
2672.4077	1358.4946
2673.9016	1344.7673
2675.3955	1336.9811
2676.8892	1308.5199
2678.3831	1313.7291
2679.877	1338.9685
2681.3708	1339.7675
2682.8647	1323.635
2684.3586	1359.3077
2685.8523	1321.0942
2687.3462	1335.6541
2688.8401	1378.9243
2690.334	1365.5024
2691.8279	1350.3285
2693.3215	1350.2747
2694.8154	1377.8361
2696.3093	1346.5601
2697.8032	1325.8175
2699.2971	1372.2526
2700.7908	1329.5181
2702.2847	1298.9779
2703.7786	1327.2034
2705.2725	1325.7366
2706.7664	1329.0205
2708.26	1346.4008
2709.7539	1345.0083
2711.2478	1350.8472
2712.7417	1343.288
2714.2356	1309.4531
2715.7292	1325.8464
2717.2231	1332.4446
2718.717	1350.2882
2720.2109	1379.2415
2721.7048	1361.2386
2723.1985	1322.9387
2724.6924	1360.6309
2726.1863	1359.6379
2727.6802	1340.054
2729.1741	1373.3936
2730.6677	1357.7606
2732.1616	1355.0905
2733.6555	1331.3325
2735.1494	1323.8997
2736.6433	1349.8069
2738.137	1362.13
2739.6309	1348.7522
2741.1248	1398.4867
2742.6187	1325.3971
2744.1125	1360.3009
2745.6064	1376.0504
2747.1001	1381.8262
2748.594	1368.4384
2750.0879	1387.6746
2751.5818	1382.72
2753.0757	1377.1934
2754.5693	1365.3982
2756.0632	1349.8912
2757.5571	1334.089
2759.051	1374.7675
2760.5449	1388.045
2762.0386	1357.8958
2763.5325	1325.7871
2765.0264	1344.9701
2766.5203	1338.3469
2768.0142	1346.8419
2769.5078	1369.7001
2771.0017	1410.7308
2772.4956	1373.475
2773.9895	1367.2334
2775.4834	1393.0098
2776.9771	1381.5035
2778.4709	1361.5704
2779.9648	1327.1627
2781.4587	1374.8323
2782.9526	1349.2498
2784.4463	1386.5986
2785.9402	1366.0125
2787.4341	1375.4091
2788.928	1376.032
2790.4219	1392.1349
2791.9155	1349.4396
2793.4094	1361.7312
2794.9033	1369.6267
2796.3972	1349.6578
2797.8911	1374.499
2799.3848	1358.6912
2800.8787	1336.0303
2802.3726	1342.7207
2803.8665	1322.1117
2805.3604	1306.8763
2806.8542	1325.5131
2808.3479	1349.282
2809.8418	1336.2118
2811.3357	1337.0718
2812.8296	1353.952
2814.3235	1341.722
2815.8171	1388.1422
2817.311	1388.6641
2818.8049	1313.5652
2820.2988	1336.4523
2821.7927	1322.192
2823.2864	1322.3333
2824.7803	1347.0778
2826.2742	1333.7002
2827.7681	1337.2834
2829.262	1305.6184
2830.7556	1336.1962
2832.2495	1327.7861
2833.7434	1315.2551
2835.2373	1329.2694
2836.7312	1351.8033
2838.2249	1338.7751
2839.7188	1314.2312
2841.2126	1350.7983
2842.7065	1357.6371
2844.2004	1330.6984
2845.6941	1326.502
2847.188	1334.9048
2848.6819	1380.359
2850.1758	1369.7898
2851.6697	1341.8195
2853.1633	1321.0291
2854.6572	1344.7097
2856.1511	1355.1874
2857.645	1355.3533
2859.1389	1371.2504
2860.6326	1342.475
2862.1265	1331.3828
2863.6204	1313.5078
2865.1143	1330.7825
2866.6082	1354.4645
2868.1021	1306.2384
2869.5957	1351.037
2871.0896	1344.9967
2872.5835	1354.5951
2874.0774	1332.0693
2875.5713	1351.1785
2877.0649	1343.015
2878.5588	1307.3456
2880.0527	1345.0232
2881.5466	1322.1772
2883.0405	1320.2666
2884.5342	1349.6432
2886.0281	1347.2668
2887.522	1319.7095
2889.0159	1348.4557
2890.5098	1331.5775
2892.0034	1308.5616
2893.4973	1289.7611
2894.9912	1331.1876
2896.4851	1331.5872
2897.979	1317.3352
2899.4727	1307.3757
2900.9666	1272.1149
2902.4604	1330.9849
2903.9543	1329.6282
2905.4482	1330.601
2906.9419	1325.9437
2908.4358	1286.6465
2909.9297	1303.8434
2911.4236	1303.7776
2912.9175	1360.7134
2914.4111	1300.8177
2915.905	1298.3328
2917.3989	1328.6976
2918.8928	1367.4602
2920.3867	1317.2848
2921.8804	1340.6411
2923.3743	1315.0238
2924.8682	1328.6372
2926.3621	1336.4783
2927.856	1298.579
2929.3499	1340.4572
2930.8435	1316.6195
2932.3374	1351.4504
2933.8313	1349.8352
2935.3252	1286.1785
2936.8191	1336.8029
2938.3127	1335.6069
2939.8066	1324.14
2941.3005	1317.6741
2942.7944	1305.2281
2944.2883	1327.985
2945.782	1332.6281
2947.2759	1347.505
2948.7698	1347.0911
2950.2637	1340.3141
2951.7576	1343.0839
2953.2512	1346.2598
2954.7451	1350.6162
2956.239	1308.1697
2957.7329	1311.2242
2959.2268	1304.8951
2960.7205	1352.0474
2962.2144	1350.0535
2963.7083	1313.3268
2965.2021	1328.6267
2966.696	1301.1653
2968.1897	1327.1963
2969.6836	1362.1514
2971.1775	1324.2367
2972.6714	1334.1523
2974.1653	1334.7168
2975.6589	1361.7129
2977.1528	1351.2677
2978.6467	1336.8604
2980.1406	1329.0178
2981.6345	1335.5962
2983.1282	1322.9603
2984.6221	1358.3673
2986.116	1299.5355
2987.6099	1285.09
2989.1038	1315.4689
2990.5977	1351.2925
2992.0913	1342.009
2993.5852	1333.5133
2995.0791	1331.4642
2996.573	1362.9105
2998.0669	1375.6321
2999.5605	1350.1541
3001.0544	1319.1234
3002.5483	1314.7806
3004.0422	1320.0912
3005.5361	1327.5004
3007.0298	1332.9701
3008.5237	1296.3269
3010.0176	1342.0861
3011.5115	1328.757
3013.0054	1351.8239
3014.499	1318.5388
3015.9929	1350.0924
3017.4868	1356.183
3018.9807	1323.309
3020.4746	1320.6045
3021.9683	1294.9449
3023.4622	1320.5939
3024.9561	1375.3296
3026.45	1329.5144
3027.9438	1389.6744
3029.4375	1298.2186
3030.9314	1349.5646
3032.4253	1329.8882
3033.9192	1334.7996
3035.4131	1257.0093
3036.9067	1344.3746
3038.4006	1298.947
3039.8945	1340.1801
3041.3884	1307.85
3042.8823	1327.5924
3044.376	1305.0126
3045.8699	1320.0342
3047.3638	1312.4956
3048.8577	1347.7277
3050.3516	1333.7135
3051.8455	1320.9152
3053.3391	1303.3118
3054.833	1372.3
3056.3269	1299.4846
3057.8208	1336.8622
3059.3147	1338.3101
3060.8083	1307.4054
3062.3022	1297.7329
3063.7961	1333.5054
3065.29	1275.4232
3066.7839	1326.4313
3068.2776	1314.7457
3069.7715	1324.4095
3071.2654	1305.2579
3072.7593	1310.5017
3074.2532	1326.4741
3075.7468	1289.8563
3077.2407	1303.9879
3078.7346	1268.7451
3080.2285	1325.7813
3081.7224	1311.7925
3083.2161	1331.1978
3084.71	1312.406
3086.2039	1255.6234
3087.6978	1287.5959
3089.1917	1280.2711
3090.6853	1267.1522
3092.1792	1326.7545
3093.6731	1258.2742
3095.167	1318.2207
3096.6609	1321.9402
3098.1545	1303.402
3099.6484	1256.2734
3101.1423	1317.0121
3102.6362	1344.5125
3104.1301	1340.5491
3105.624	1283.6851
3107.1177	1301.1396
3108.6116	1337.3411
3110.1055	1323.4569
3111.5994	1343.0605
3113.0933	1259.4868
3114.5869	1281.8588
3116.0808	1270.295
3117.5747	1325.9093
3119.0686	1309.7678
3120.5625	1278.1602
3122.0562	1315.7043
3123.55	1323.8225
3125.0439	1323.1198
3126.5378	1307.2651
3128.0317	1293.8362
3129.5254	1273.4149
3131.0193	1309
3132.5132	1313.0033
3134.0071	1322.4146
3135.501	1281.4503
3136.9946	1290.4979
3138.4885	1270.5417
3139.9824	1256.4479
3141.4763	1266.5837
3142.9702	1268.9318
3144.4639	1293.7235
3145.9578	1283.3636
3147.4517	1348.6636
3148.9456	1287.7594
3150.4395	1292.6796
3151.9331	1292.8436
3153.427	1273.3716
3154.9209	1258.5542
3156.4148	1319.7773
3157.9087	1311.1133
3159.4023	1288.9626
3160.8962	1327.8618
3162.3901	1325.7526
3163.884	1320.011
3165.3779	1322.4307
3166.8718	1273.3428
3168.3655	1257.201
3169.8594	1303.0719
3171.3533	1241.3093
3172.8472	1297.2456
3174.3411	1307.7521
3175.8347	1340.6752
3177.3286	1352.5227
3178.8225	1325.1578
3180.3164	1282.2242
3181.8103	1333.177
3183.304	1275.2732
3184.7979	1264.8568
3186.2917	1237.824
3187.7856	1293.1091
3189.2795	1268.8131
3190.7732	1340.1139
3192.2671	1335.5513
3193.761	1287.6809
3195.2549	1264.7771
3196.7488	1280.8385
3198.2424	1280.7213
3199.7363	1266.7003
3201.2302	1278.4834
3202.7241	1257.8503
3204.218	1245.5155
3205.7117	1258.0498
3207.2056	1261.1786
3208.6995	1268.0663
3210.1934	1256.6465
3211.6873	1234.2043
3213.1809	1278.4736
3214.6748	1278.5381
3216.1687	1307.6167
3217.6626	1252.5775
3219.1565	1256.0668
3220.6501	1234.184
3222.144	1258.0591
3223.6379	1255.8358
3225.1318	1289.3312
3226.6257	1244.5464
3228.1196	1229.7776
3229.6133	1274.4362
3231.1072	1279.7097
3232.6011	1279.5721
3234.095	1240.6235
3235.5889	1233.6864
3237.0825	1215.5099
3238.5764	1240.313
3240.0703	1271.4849
3241.5642	1263.5625
3243.0581	1258.4138
3244.5518	1244.3557
3246.0457	1189.5474
3247.5396	1211.339
3249.0334	1218.7592
3250.5273	1224.017
3252.021	1209.6931
3253.5149	1246.1844
3255.0088	1246.2195
3256.5027	1198.1752
3257.9966	1213.4501
3259.4902	1223.151
3260.9841	1228.9094
3262.478	1234.8182
3263.9719	1244.6584
3265.4658	1227.2719
3266.9595	1235.5463
3268.4534	1252.9418
3269.9473	1194.087
3271.4412	1217.5272
3272.9351	1216.7838
3274.4287	1247.0338
3275.9226	1252.306
3277.4165	1244
3278.9104	1195.6024
3280.4043	1209.8969
3281.8979	1200.6112
3283.3918	1187.6929
3284.8857	1212.7207
3286.3796	1194.1205
3287.8735	1230.5265
3289.3674	1183.4271
3290.8611	1177.1677
3292.355	1196.6412
3293.8489	1248.0475
3295.3428	1252.1826
3296.8367	1224.5919
3298.3303	1185.0243
3299.8242	1201.9716
3301.3181	1218.8318
3302.812	1200.001
3304.3059	1191.0001
3305.7996	1242.1855
3307.2935	1232.1696
3308.7874	1233.4922
3310.2813	1212.5039
3311.7751	1218.3573
3313.2688	1180.2921
3314.7627	1129.8994
3316.2566	1165.2484
3317.7505	1174.9067
3319.2444	1194.9762
3320.738	1208.9337
3322.2319	1198.1421
3323.7258	1163.1272
3325.2197	1134.053
3326.7136	1179.3005
3328.2073	1188.1318
3329.7012	1167.5596
3331.1951	1217.0255
3332.689	1180.5924
3334.1829	1230.8148
3335.6765	1216.6683
3337.1704	1197.1296
3338.6643	1169.0449
3340.1582	1196.9418
3341.6521	1203.877
3343.1458	1213.439
3344.6396	1199.2179
3346.1335	1158.2689
3347.6274	1153.3978
3349.1213	1213.1355
3350.6152	1199.2738
3352.1089	1174.6346
3353.6028	1207.6671
3355.0967	1153.8081
3356.5906	1171.9932
3358.0845	1177.0247
3359.5781	1164.0254
3361.072	1221.0789
3362.5659	1175.2247
3364.0598	1186.1752
3365.5537	1150.4633
3367.0474	1169.1835
3368.5413	1203.5983
3370.0352	1148.6333
3371.5291	1123.9943
3373.0229	1154.4906
3374.5166	1214.2527
3376.0105	1188.0627
3377.5044	1170.9459
3378.9983	1178.6099
3380.4922	1181.6704
3381.9858	1172.0796
3383.4797	1207.6167
3384.9736	1184.1002
3386.4675	1208.0792
3387.9614	1195.2417
3389.4551	1173.4657
3390.949	1228.489
3392.4429	1161.1606
3393.9368	1170.4613
3395.4307	1155.4274
3396.9243	1192.6755
3398.4182	1147.7985
3399.9121	1190.0111
3401.406	1196.4753
3402.8999	1184.6353
3404.3936	1161.8053
3405.8875	1180.1023
3407.3813	1167.2478
3408.8752	1117.1204
3410.3691	1120.7805
3411.863	1186.4255
3413.3567	1152.6317
3414.8506	1181.0234
3416.3445	1164.6221
3417.8384	1154.8169
3419.3323	1139.317
3420.8259	1148.9659
3422.3198	1187.724
3423.8137	1223.6277
3425.3076	1150.1893
3426.8015	1161.384
3428.2952	1151.0798
3429.7891	1131.1318
3431.283	1169.1915
3432.7769	1189.8831
3434.2708	1188.2897
3435.7644	1140.2499
3437.2583	1185.4581
3438.7522	1134.5579
3440.2461	1165
3441.74	1162.0756
3443.2336	1163.2397
3444.7275	1162.2222
3446.2214	1149.5448
3447.7153	1124.9031
3449.2092	1119.2927
3450.7029	1206.8252
3452.1968	1119.2882
3453.6907	1196.0216
3455.1846	1197.645
3456.6785	1201.9314
3458.1721	1175.0823
3459.666	1137.5948
3461.1599	1143.9401
3462.6538	1177.1672
3464.1477	1193.1362
3465.6414	1124.8853
3467.1353	1151.001
3468.6292	1127.7852
3470.123	1163.1493
3471.6169	1154.2561
3473.1108	1200.1309
3474.6045	1129.8193
3476.0984	1168.9813
3477.5923	1119.4449
3479.0862	1147.2094
3480.5801	1138.6113
3482.0737	1164.4779
3483.5676	1148.9913
3485.0615	1100.1228
3486.5554	1165.5192
3488.0493	1135.1515
3489.543	1131.1567
3491.0369	1141.5861
3492.5308	1114.9541
3494.0247	1132.5438
3495.5186	1154.9692
3497.0122	1139.1768
3498.5061	1125.0052
3500	1106.7068
