EXPLAIN
TAG	CORPOT
TITLE	LABEL	Open Circuit Potential	Test Identifier
DATE	LABEL	2024/12/19	Date
TIME	LABEL	16:25:39	Time
NOTES	NOTES	1	Notes...
	
PSTAT	PSTAT	REF620-49045	Potentiostat
TIMEOUT	QUANT	1.80000E+003	Total Time (s)
SAMPLETIME	QUANT	5.00000E-001	Sample Period (s)
STABILITY	QUANT	0.00000E+000	Stability (mV/s)
AREA	QUANT	1.00000E+000	Sample Area (cm^2)
SEQUENCER	TOGGLE	TRUE	Run as Sequence
PSTATMODEL	IQUANT	87	Pstat Model
PSTATSECTION	LABEL	REF620-49045	Pstat Section
PSTATSERIALNO	LABEL	49045	Pstat Serial Number
CTRLMODE	IQUANT	1	Control Mode
ELECTROMETER	IQUANT	0	RE=0 or CS=1
IESTAB	IQUANT	2	I/E Stability
CASPEED	IQUANT	4	Control Amp Speed
CONVENTION	IQUANT	1	Current Convention
ICHRANGE	IQUANT	2	Ich Range
ICHRANGEMODE	TOGGLE	T	Ich Auto Range
ICHOFFSETENABLE	TOGGLE	F	Ich Offset Enable
ICHOFFSET	QUANT	0	Ich Offset (V)
ICHFILTER	IQUANT	3	Ich Filter
VCHRANGE	IQUANT	3	Vch Range
VCHRANGEMODE	TOGGLE	T	Vch Auto Range
VCHOFFSETENABLE	TOGGLE	F	Vch Offset Enable
VCHOFFSET	QUANT	0	Vch Offset (V)
VCHFILTER	IQUANT	3	Vch Filter
ACHRANGE	IQUANT	2	Ach Range
ACHOFFSETENABLE	TOGGLE	F	Ach Offset Enable
ACHOFFSET	QUANT	0	Ach Offset (V)
ACHFILTER	IQUANT	1	Ach Filter
IERANGELOWERLIMIT	IQUANT	1	I/E Range Lower Limit
IERANGEMODE	TOGGLE	F	I/E AutoRange
IERANGE	IQUANT	10	I/E Range
POSFEEDENABLE	TOGGLE	F	Positive Feedback IR Comp
POSFEEDRESISTANCE	QUANT	0	Positive Feedback Resistance (ohm)
ACHSELECT	IQUANT	4	Ach Select
SENSECABLEID	IQUANT	7	Sense Cable ID
PWRCABLEID	IQUANT	7	Power Cable ID
DCCALDATE	LABEL	4/1/2024	DC Calibration Date
ACCALDATE	LABEL	10/11/2023	AC Calibration Date
THERMOSELECT	IQUANT	1	Thermo Select
FRAMEWORKVERSION	LABEL	7.10.3	Framework Version
INSTRUMENTVERSION	LABEL	4.91	Instrument Version
COMMVERSION	LABEL	5.10	Communications Version
CPUPLDVERSION	LABEL	6.00	CPU PLD Version
CTRLPLDVERSION	LABEL	7.10	CTRL PLD Version
PSTATPLDVERSION	LABEL	8.13	PSTAT PLD Version
CURVE	TABLE	137
	Pt	T	Vf	Vm	Ach	Over	Temp
	#	s	V vs. Ref.	V	V	bits	deg C
	0	0.51	2.44609E+000	2.44609E+000	1.86061E-004	...........	-327.67
	1	1.02	2.41404E+000	7.68338E-001	1.70728E-004	...........	-327.67
	2	1.53	2.24069E+000	4.06034E-001	1.85328E-004	...........	-327.67
	3	2.04	1.82642E+000	-3.74926E-002	1.74328E-004	...........	-327.67
	4	2.55	1.24334E+000	3.26961E-001	1.85761E-004	.........v.	-327.67
	5	3.06	7.19296E-001	1.02364E+000	1.74194E-004	...........	-327.67
	6	3.57	4.53592E-001	6.89464E-001	1.84895E-004	...........	-327.67
	7	4.08	4.68629E-001	1.21442E+000	1.74761E-004	...........	-327.67
	8	4.59	6.29789E-001	5.70910E-001	1.87195E-004	...........	-327.67
	9	5.1	7.63685E-001	-3.82298E-002	1.74461E-004	...........	-327.67
	10	5.61	7.34452E-001	-3.28047E-001	1.87028E-004	.........v.	-327.67
	11	6.12	5.05862E-001	-5.04789E-001	1.73528E-004	...........	-327.67
	12	6.63	1.66575E-001	-5.27826E-001	1.88928E-004	...........	-327.67
	13	7.14	-1.43786E-001	-6.81831E-002	1.73394E-004	...........	-327.67
	14	7.65	-3.22631E-001	-2.77737E-001	1.90462E-004	...........	-327.67
	15	8.16	-3.56920E-001	-2.89377E-001	1.74361E-004	...........	-327.67
	16	8.67	-3.13232E-001	-8.05106E-004	1.88895E-004	...........	-327.67
	17	9.18	-2.45374E-001	2.48182E-001	1.74194E-004	...........	-327.67
	18	9.69	-1.48025E-001	2.43009E-001	1.87061E-004	...........	-327.67
	19	10.2	-1.80333E-002	2.30075E-001	1.73194E-004	...........	-327.67
	20	10.71	1.08592E-001	2.92653E-001	1.86361E-004	.........v.	-327.67
	21	11.22	1.94917E-001	1.27561E-001	1.71261E-004	...........	-327.67
	22	11.73	2.20787E-001	-3.28047E-001	1.87428E-004	.........v.	-327.67
	23	12.24	1.85583E-001	7.17042E-001	1.75261E-004	...........	-327.67
	24	12.75	1.40195E-001	-8.06246E-002	1.86428E-004	...........	-327.67
	25	13.26	1.27911E-001	-3.28047E-001	1.73128E-004	.........v.	-327.67
	26	13.77	1.01813E-001	-7.22042E-002	1.85295E-004	...........	-327.67
	27	14.28	2.58703E-002	1.49909E-001	1.74728E-004	.........v.	-327.67
	28	14.79	-2.74428E-002	6.32435E-001	1.88328E-004	...........	-327.67
	29	15.3	2.88646E-002	4.98322E-001	1.72594E-004	...........	-327.67
	30	15.81	1.85130E-001	5.11346E-001	1.88261E-004	...........	-327.67
	31	16.32	3.55346E-001	6.01593E-001	1.71461E-004	...........	-327.67
	32	16.83	4.76864E-001	7.13779E-001	1.87028E-004	...........	-327.67
	33	17.34	5.56229E-001	8.10938E-001	1.70661E-004	...........	-327.67
	34	17.85	6.27247E-001	8.94640E-001	1.86261E-004	...........	-327.67
	35	18.36	7.07372E-001	9.81759E-001	1.70194E-004	...........	-327.67
	36	18.87	7.95943E-001	1.09790E+000	1.87395E-004	...........	-327.67
	37	19.38	8.90644E-001	1.28030E+000	1.71694E-004	...........	-327.67
	38	19.89	9.95599E-001	1.37196E+000	1.87995E-004	...........	-327.67
	39	20.4	1.11120E+000	1.36814E+000	1.72728E-004	...........	-327.67
	40	20.91	1.21851E+000	1.20256E+000	1.88161E-004	...........	-327.67
	41	21.42	1.28581E+000	1.25192E+000	1.77394E-004	...........	-327.67
	42	21.93	1.30164E+000	1.31844E+000	1.75994E-004	...........	-327.67
	43	22.44	1.29604E+000	1.57996E+000	1.56794E-004	...........	-327.67
	44	22.95	1.31793E+000	1.63851E+000	1.58227E-004	...........	-327.67
	45	23.46	1.39000E+000	1.66473E+000	1.55960E-004	...........	-327.67
	46	23.97	1.49229E+000	1.77111E+000	1.56660E-004	...........	-327.67
	47	24.48	1.59316E+000	1.84330E+000	1.57594E-004	...........	-327.67
	48	24.99	1.66698E+000	1.17582E+000	1.56260E-004	...........	-327.67
	49	25.5	1.69423E+000	2.36258E+000	1.57360E-004	...........	-327.67
	50	26.01	1.73332E+000	3.27785E+000	1.58794E-004	.........v.	-327.67
	51	26.52	1.95718E+000	4.73408E+000	1.60561E-004	...........	-327.67
	52	27.03	2.49322E+000	4.59155E+000	1.59727E-004	...........	-327.67
	53	27.54	3.24321E+000	4.70031E+000	1.57460E-004	...........	-327.67
	54	28.05	3.95203E+000	4.97261E+000	1.55894E-004	...........	-327.67
	55	28.56	4.46118E+000	5.68826E+000	1.57294E-004	...........	-327.67
	56	29.07	4.81028E+000	5.29191E+000	1.58227E-004	...........	-327.67
	57	29.58	5.07151E+000	4.96721E+000	1.56027E-004	...........	-327.67
	58	30.09	5.21763E+000	4.88373E+000	1.57760E-004	...........	-327.67
	59	30.6	5.21209E+000	4.90886E+000	1.56560E-004	...........	-327.67
	60	31.11	5.10956E+000	4.95860E+000	1.59660E-004	...........	-327.67
	61	31.62	5.00554E+000	4.97779E+000	1.55194E-004	...........	-327.67
	62	32.13	4.95190E+000	4.98328E+000	1.56460E-004	...........	-327.67
	63	32.64	4.94584E+000	5.04085E+000	1.54427E-004	...........	-327.67
	64	33.15	4.96583E+000	5.08919E+000	1.57827E-004	...........	-327.67
	65	33.66	4.99804E+000	5.11803E+000	1.58494E-004	...........	-327.67
	66	34.17	5.03880E+000	5.27806E+000	1.56827E-004	...........	-327.67
	67	34.68	5.09864E+000	5.71088E+000	1.58294E-004	...........	-327.67
	68	35.19	5.20773E+000	5.94899E+000	1.57960E-004	...........	-327.67
	69	35.7	5.41896E+000	7.68352E+000	1.54227E-004	.e.........	-327.67
	70	36.21	5.80724E+000	7.78773E+000	1.57027E-004	.e.........	-327.67
	71	36.72	6.39577E+000	8.42869E+000	1.57027E-004	.e.........	-327.67
	72	37.23	6.97636E+000	3.16490E+000	1.57227E-004	...........	-327.67
	73	37.74	7.06244E+000	3.25894E+000	1.55194E-004	...........	-327.67
	74	38.25	6.33334E+000	3.10707E+000	1.56527E-004	...........	-327.67
	75	38.76	5.11326E+000	3.44260E+000	1.56627E-004	...........	-327.67
	76	39.27	4.04795E+000	3.22096E+000	1.58527E-004	...........	-327.67
	77	39.78	3.45848E+000	3.38161E+000	1.56760E-004	...........	-327.67
	78	40.29	3.26300E+000	3.48996E+000	1.55960E-004	...........	-327.67
	79	40.8	3.27496E+000	3.79495E+000	1.55927E-004	...........	-327.67
	80	41.31	3.38330E+000	3.98508E+000	1.58527E-004	...........	-327.67
	81	41.82	3.54250E+000	3.91393E+000	1.56860E-004	...........	-327.67
	82	42.33	3.70607E+000	3.72197E+000	1.58160E-004	...........	-327.67
	83	42.84	3.80707E+000	3.38177E+000	1.57927E-004	...........	-327.67
	84	43.35	3.79073E+000	3.07041E+000	1.55427E-004	...........	-327.67
	85	43.86	3.65350E+000	3.15333E+000	1.56727E-004	...........	-327.67
	86	44.37	3.44331E+000	2.49789E+000	1.56894E-004	...........	-327.67
	87	44.88	3.23623E+000	4.06197E+000	1.58360E-004	...........	-327.67
	88	45.39	3.12686E+000	2.98468E+000	1.57194E-004	...........	-327.67
	89	45.9	3.17111E+000	4.30131E+000	1.58594E-004	...........	-327.67
	90	46.41	3.38351E+000	6.19219E+000	1.56660E-004	...........	-327.67
	91	46.92	3.79858E+000	4.23326E+000	1.57860E-004	...........	-327.67
	92	47.43	4.29276E+000	3.22017E+000	1.58460E-004	...........	-327.67
	93	47.94	4.54014E+000	4.52694E+000	1.56294E-004	...........	-327.67
	94	48.45	4.44227E+000	4.05544E+000	1.58460E-004	...........	-327.67
	95	48.96	4.24383E+000	4.18550E+000	1.58327E-004	...........	-327.67
	96	49.47	4.17989E+000	6.24257E+000	1.56727E-004	...........	-327.67
	97	49.98	4.39109E+000	7.26619E+000	1.57260E-004	.e.........	-327.67
	98	50.49	4.93947E+000	5.84585E+000	1.55160E-004	...........	-327.67
	99	51	5.63081E+000	6.57322E+000	1.56560E-004	...........	-327.67
	100	51.51	6.16459E+000	7.54681E+000	1.58194E-004	.e.........	-327.67
	101	52.02	6.50210E+000	7.09487E+000	1.59361E-004	.e.........	-327.67
	102	52.53	6.78091E+000	7.56892E+000	1.58960E-004	.e.........	-327.67
	103	53.04	7.02642E+000	6.59611E+000	1.57560E-004	...........	-327.67
	104	53.55	7.14174E+000	6.20911E+000	1.59127E-004	...........	-327.67
	105	54.06	7.04389E+000	6.02961E+000	1.54927E-004	...........	-327.67
	106	54.57	6.76811E+000	6.14670E+000	1.57060E-004	...........	-327.67
	107	55.08	6.45771E+000	6.10698E+000	1.57127E-004	...........	-327.67
	108	55.59	6.23627E+000	6.06053E+000	1.56794E-004	...........	-327.67
	109	56.1	6.12797E+000	6.17891E+000	1.58694E-004	...........	-327.67
	110	56.61	6.10041E+000	6.33374E+000	1.57694E-004	...........	-327.67
	111	57.12	6.13299E+000	6.64870E+000	1.55727E-004	...........	-327.67
	112	57.63	6.24145E+000	7.48348E+000	1.56427E-004	.e.........	-327.67
	113	58.14	6.45509E+000	7.17478E+000	1.54060E-004	.e.........	-327.67
	114	58.65	6.74409E+000	7.15284E+000	1.57794E-004	.e.........	-327.67
	115	59.16	7.00040E+000	7.15549E+000	1.55560E-004	.e.........	-327.67
	116	59.67	7.14287E+000	7.16209E+000	1.59294E-004	.e.........	-327.67
	117	60.18	7.17473E+000	6.62180E+000	1.60827E-004	...........	-327.67
	118	60.69	7.12431E+000	6.95342E+000	1.56994E-004	.e.........	-327.67
	119	61.2	7.02746E+000	6.97995E+000	1.58327E-004	.e.........	-327.67
	120	61.71	6.95521E+000	7.44639E+000	1.56560E-004	.e.........	-327.67
	121	62.22	6.99360E+000	8.34608E+000	1.58194E-004	.e.........	-327.67
	122	62.73	7.20378E+000	8.48641E+000	1.59361E-004	.e.........	-327.67
	123	63.24	7.55673E+000	7.86216E+000	1.53894E-004	.e.........	-327.67
	124	63.75	7.90967E+000	8.64521E+000	1.60294E-004	.e.........	-327.67
	125	64.26	8.07383E+000	4.52685E+000	1.55360E-004	...........	-327.67
	126	64.77	7.81115E+000	3.69969E+000	1.56860E-004	...........	-327.67
	127	65.28	6.95983E+000	3.79249E+000	1.54927E-004	...........	-327.67
	128	65.79	5.76360E+000	4.49578E+000	1.56927E-004	...........	-327.67
	129	66.3	4.79571E+000	6.06390E+000	1.58527E-004	...........	-327.67
	130	66.81	4.44039E+000	4.52429E+000	1.57994E-004	...........	-327.67
	131	67.32	4.55606E+000	3.61946E+000	1.54960E-004	...........	-327.67
	132	67.83	4.65012E+000	2.65982E+000	1.58294E-004	...........	-327.67
	133	68.34	4.37638E+000	2.45869E+000	1.57327E-004	...........	-327.67
	134	68.85	3.79132E+000	2.37404E+000	1.53894E-004	...........	-327.67
	135	69.36	3.16264E+000	2.16763E+000	1.58127E-004	...........	-327.67
	136	69.87	2.68633E+000	2.21167E+000	1.58694E-004	...........	-327.67
